  6.5000000e-002
  6.0000000e-002
  6.0000000e-002
  5.7500000e-002
  5.5000000e-002
  5.5000000e-002
  5.0000000e-002
  4.5000000e-002
  4.2500000e-002
  4.0000000e-002
  4.2500000e-002
  4.2500000e-002
  4.7500000e-002
  4.7500000e-002
  4.7500000e-002
  4.0000000e-002
  4.0000000e-002
  4.0000000e-002
  4.0000000e-002
  4.2500000e-002
  4.5000000e-002
  4.5000000e-002
  4.0000000e-002
  4.0000000e-002
  4.0000000e-002
  4.0000000e-002
  4.0000000e-002
  4.0000000e-002
  3.7500000e-002
  4.2500000e-002
  2.2250000e-001
  1.1250000e-001
  4.5000000e-002
  2.5000000e-002
 -2.5000000e-002
  0.0000000e+000
  4.0000000e-002
  4.5000000e-002
  1.7500000e-002
  1.7500000e-002
  4.2500000e-002
  5.5000000e-002
  4.0000000e-002
  4.5000000e-002
  7.0000000e-002
  8.2500000e-002
  7.7500000e-002
  6.7500000e-002
  7.7500000e-002
  9.5000000e-002
  9.7500000e-002
  1.0000000e-001
  1.1750000e-001
  1.3000000e-001
  1.4750000e-001
  1.5000000e-001
  1.4250000e-001
  1.3000000e-001
  1.1750000e-001
  9.7500000e-002
  9.0000000e-002
  7.7500000e-002
  6.0000000e-002
  4.2500000e-002
  2.7500000e-002
  1.7500000e-002
  1.7500000e-002
  1.7500000e-002
  1.7500000e-002
  1.5000000e-002
  1.7500000e-002
  1.2500000e-002
  5.0000000e-003
  2.5000000e-003
  1.0000000e-002
  1.2500000e-002
  1.0000000e-002
  1.5000000e-002
  7.5000000e-003
 -2.0000000e-002
 -5.0000000e-002
 -8.0000000e-002
 -1.0500000e-001
 -9.2500000e-002
 -4.0000000e-002
  1.3000000e-001
  3.9250000e-001
  6.8000000e-001
  9.7000000e-001
  1.2800000e+000
  1.5950000e+000
  1.8925000e+000
  2.1050000e+000
  2.2550000e+000
  2.1675000e+000
  1.7925000e+000
  1.1425000e+000
  5.6000000e-001
  1.6750000e-001
 -4.2500000e-002
 -9.7500000e-002
 -1.3250000e-001
 -1.8250000e-001
 -2.2500000e-001
 -2.0500000e-001
 -1.8000000e-001
 -1.9750000e-001
 -2.3250000e-001
 -2.2500000e-001
 -2.0500000e-001
 -2.1500000e-001
 -2.4000000e-001
 -2.3500000e-001
 -2.2000000e-001
 -2.2250000e-001
 -2.4250000e-001
 -2.4250000e-001
 -2.3500000e-001
 -2.4000000e-001
 -2.5250000e-001
 -2.5000000e-001
 -2.4250000e-001
 -2.4750000e-001
 -2.5500000e-001
 -2.6000000e-001
 -2.5750000e-001
 -2.5750000e-001
 -2.6000000e-001
 -2.6750000e-001
 -2.7000000e-001
 -2.7000000e-001
 -2.7000000e-001
 -2.6750000e-001
 -2.6500000e-001
 -2.6750000e-001
 -2.7000000e-001
 -2.8000000e-001
 -2.8250000e-001
 -2.8500000e-001
 -2.8750000e-001
 -2.9500000e-001
 -2.9750000e-001
 -2.9250000e-001
 -2.9000000e-001
 -2.9250000e-001
 -2.9250000e-001
 -2.9250000e-001
 -2.9750000e-001
 -3.0000000e-001
 -2.9750000e-001
 -3.0000000e-001
 -3.0250000e-001
 -3.0250000e-001
 -3.1250000e-001
 -3.1000000e-001
 -3.0500000e-001
 -2.9750000e-001
 -2.9750000e-001
 -2.8500000e-001
 -2.8000000e-001
 -2.6500000e-001
 -2.5250000e-001
 -2.3500000e-001
 -2.2000000e-001
 -2.0000000e-001
 -1.8250000e-001
 -1.6250000e-001
 -1.4250000e-001
 -1.2000000e-001
 -1.0000000e-001
 -7.5000000e-002
 -5.0000000e-002
 -3.0000000e-002
  2.5000000e-003
  3.0000000e-002
  5.0000000e-002
  6.5000000e-002
  8.5000000e-002
  9.5000000e-002
  9.7500000e-002
  1.0000000e-001
  1.1000000e-001
  1.1000000e-001
  1.1500000e-001
  1.1750000e-001
  1.2000000e-001
  1.1750000e-001
  1.2000000e-001
  1.1500000e-001
  1.1000000e-001
  9.7500000e-002
  9.7500000e-002
  9.7500000e-002
  9.5000000e-002
  9.7500000e-002
  1.0000000e-001
  9.7500000e-002
  8.7500000e-002
  8.2500000e-002
  8.5000000e-002
  9.0000000e-002
  9.2500000e-002
  9.0000000e-002
  8.7500000e-002
  9.0000000e-002
  8.7500000e-002
  9.0000000e-002
  8.0000000e-002
  8.0000000e-002
  8.0000000e-002
  8.2500000e-002
  8.5000000e-002
  8.7500000e-002
  8.7500000e-002
  8.7500000e-002
  8.0000000e-002
  7.7500000e-002
  7.7500000e-002
  9.7500000e-002
  2.5000000e-001
  1.3000000e-001
  9.2500000e-002
  6.5000000e-002
  3.0000000e-002
  4.7500000e-002
  8.5000000e-002
  8.0000000e-002
  6.5000000e-002
  7.5000000e-002
  1.0000000e-001
  9.7500000e-002
  8.5000000e-002
  8.5000000e-002
  1.1000000e-001
  1.1750000e-001
  1.0750000e-001
  1.1000000e-001
  1.2750000e-001
  1.3500000e-001
  1.4000000e-001
  1.4250000e-001
  1.5500000e-001
  1.7000000e-001
  1.8500000e-001
  1.8750000e-001
  1.9000000e-001
  1.8750000e-001
  1.6750000e-001
  1.4500000e-001
  1.3000000e-001
  1.1500000e-001
  9.7500000e-002
  8.2500000e-002
  7.7500000e-002
  7.5000000e-002
  7.0000000e-002
  6.0000000e-002
  5.5000000e-002
  5.7500000e-002
  5.7500000e-002
  5.5000000e-002
  4.7500000e-002
  5.0000000e-002
  5.0000000e-002
  5.5000000e-002
  5.5000000e-002
  6.2500000e-002
  5.0000000e-002
  2.5000000e-002
 -1.7500000e-002
 -4.5000000e-002
 -6.7500000e-002
 -6.0000000e-002
  2.0000000e-002
  1.8000000e-001
  4.4500000e-001
  7.2250000e-001
  1.0050000e+000
  1.3000000e+000
  1.6075000e+000
  1.9000000e+000
  2.1150000e+000
  2.2575000e+000
  2.1675000e+000
  1.7850000e+000
  1.1500000e+000
  5.9750000e-001
  2.1750000e-001
  2.0000000e-002
 -5.5000000e-002
 -1.0250000e-001
 -1.6000000e-001
 -1.9000000e-001
 -1.6500000e-001
 -1.4000000e-001
 -1.6000000e-001
 -1.9250000e-001
 -1.8750000e-001
 -1.6750000e-001
 -1.7500000e-001
 -1.9750000e-001
 -2.0000000e-001
 -1.8500000e-001
 -2.0000000e-001
 -2.1000000e-001
 -2.1000000e-001
 -1.9750000e-001
 -2.0500000e-001
 -2.1500000e-001
 -2.2250000e-001
 -2.1750000e-001
 -2.2250000e-001
 -2.2500000e-001
 -2.2750000e-001
 -2.2250000e-001
 -2.2750000e-001
 -2.3250000e-001
 -2.3500000e-001
 -2.3500000e-001
 -2.4000000e-001
 -2.4250000e-001
 -2.4500000e-001
 -2.4750000e-001
 -2.4750000e-001
 -2.4500000e-001
 -2.4750000e-001
 -2.5250000e-001
 -2.5500000e-001
 -2.5750000e-001
 -2.6000000e-001
 -2.6250000e-001
 -2.6500000e-001
 -2.6750000e-001
 -2.6750000e-001
 -2.7250000e-001
 -2.7250000e-001
 -2.8000000e-001
 -2.8250000e-001
 -2.8750000e-001
 -2.9000000e-001
 -2.9500000e-001
 -2.9250000e-001
 -2.8500000e-001
 -2.8250000e-001
 -2.7750000e-001
 -2.7250000e-001
 -2.6500000e-001
 -2.6500000e-001
 -2.5500000e-001
 -2.4500000e-001
 -2.3250000e-001
 -2.1750000e-001
 -1.9750000e-001
 -1.8250000e-001
 -1.6750000e-001
 -1.5250000e-001
 -1.3250000e-001
 -1.1000000e-001
 -8.5000000e-002
 -6.5000000e-002
 -3.7500000e-002
  0.0000000e+000
  2.5000000e-002
  4.5000000e-002
  6.2500000e-002
  7.5000000e-002
  8.7500000e-002
  1.0250000e-001
  1.1500000e-001
  1.1750000e-001
  1.2250000e-001
  1.3000000e-001
  1.3000000e-001
  1.3250000e-001
  1.3000000e-001
  1.2500000e-001
  1.2250000e-001
  1.2000000e-001
  1.1750000e-001
  1.1500000e-001
  1.1250000e-001
  1.1000000e-001
  1.0250000e-001
  1.0250000e-001
  9.7500000e-002
  9.7500000e-002
  9.7500000e-002
  1.0250000e-001
  1.0000000e-001
  1.0000000e-001
  9.5000000e-002
  9.7500000e-002
  9.7500000e-002
  9.7500000e-002
  9.7500000e-002
  9.7500000e-002
  9.7500000e-002
  9.5000000e-002
  9.2500000e-002
  9.0000000e-002
  9.0000000e-002
  9.2500000e-002
  9.5000000e-002
  9.0000000e-002
  9.0000000e-002
  8.7500000e-002
  9.2500000e-002
  1.5750000e-001
  2.3000000e-001
  1.1250000e-001
  8.7500000e-002
  5.7500000e-002
  3.7500000e-002
  6.2500000e-002
  9.5000000e-002
  7.7500000e-002
  6.2500000e-002
  8.5000000e-002
  1.0500000e-001
  9.7500000e-002
  8.7500000e-002
  1.0000000e-001
  1.1750000e-001
  1.2000000e-001
  1.1000000e-001
  1.1500000e-001
  1.2750000e-001
  1.3500000e-001
  1.3250000e-001
  1.4750000e-001
  1.6000000e-001
  1.7250000e-001
  1.8000000e-001
  1.8250000e-001
  1.7750000e-001
  1.7500000e-001
  1.5750000e-001
  1.3750000e-001
  1.2250000e-001
  1.1500000e-001
  9.2500000e-002
  8.0000000e-002
  7.2500000e-002
  6.0000000e-002
  5.7500000e-002
  5.7500000e-002
  5.5000000e-002
  5.0000000e-002
  4.7500000e-002
  4.5000000e-002
  4.2500000e-002
  4.5000000e-002
  5.0000000e-002
  4.5000000e-002
  4.2500000e-002
  4.7500000e-002
  4.2500000e-002
  2.0000000e-002
 -2.0000000e-002
 -5.5000000e-002
 -7.5000000e-002
 -5.7500000e-002
  3.5000000e-002
  2.1750000e-001
  4.8750000e-001
  7.6250000e-001
  1.0525000e+000
  1.3700000e+000
  1.6925000e+000
  1.9675000e+000
  2.1675000e+000
  2.2750000e+000
  2.1275000e+000
  1.6900000e+000
  1.0350000e+000
  4.9750000e-001
  1.4750000e-001
 -2.7500000e-002
 -7.2500000e-002
 -1.0250000e-001
 -1.6500000e-001
 -1.9000000e-001
 -1.6250000e-001
 -1.4250000e-001
 -1.7500000e-001
 -2.0500000e-001
 -1.9250000e-001
 -1.7500000e-001
 -1.9000000e-001
 -2.0500000e-001
 -2.0250000e-001
 -1.9500000e-001
 -2.0000000e-001
 -2.1000000e-001
 -2.1250000e-001
 -2.0500000e-001
 -2.1000000e-001
 -2.2500000e-001
 -2.2750000e-001
 -2.2000000e-001
 -2.1750000e-001
 -2.2750000e-001
 -2.3250000e-001
 -2.3250000e-001
 -2.2750000e-001
 -2.3750000e-001
 -2.4000000e-001
 -2.4000000e-001
 -2.3750000e-001
 -2.4250000e-001
 -2.4750000e-001
 -2.5000000e-001
 -2.4750000e-001
 -2.4750000e-001
 -2.5250000e-001
 -2.6000000e-001
 -2.6000000e-001
 -2.5500000e-001
 -2.6000000e-001
 -2.6500000e-001
 -2.6500000e-001
 -2.7000000e-001
 -2.7250000e-001
 -2.7250000e-001
 -2.7500000e-001
 -2.7500000e-001
 -2.8000000e-001
 -2.8250000e-001
 -2.8250000e-001
 -2.8250000e-001
 -2.8500000e-001
 -2.8250000e-001
 -2.8250000e-001
 -2.7750000e-001
 -2.7500000e-001
 -2.6500000e-001
 -2.6250000e-001
 -2.5000000e-001
 -2.4250000e-001
 -2.2250000e-001
 -2.0750000e-001
 -1.9000000e-001
 -1.7250000e-001
 -1.5750000e-001
 -1.4000000e-001
 -1.1500000e-001
 -9.2500000e-002
 -7.2500000e-002
 -4.7500000e-002
 -2.5000000e-002
  1.0000000e-002
  3.7500000e-002
  6.2500000e-002
  7.2500000e-002
  9.0000000e-002
  1.0750000e-001
  1.2000000e-001
  1.2500000e-001
  1.3500000e-001
  1.3750000e-001
  1.3750000e-001
  1.3750000e-001
  1.4000000e-001
  1.3500000e-001
  1.2500000e-001
  1.2500000e-001
  1.2750000e-001
  1.2500000e-001
  1.2000000e-001
  1.1750000e-001
  1.1500000e-001
  1.1250000e-001
  1.0500000e-001
  1.0750000e-001
  1.0500000e-001
  1.0250000e-001
  1.0250000e-001
  1.0750000e-001
  1.0500000e-001
  1.0750000e-001
  1.0000000e-001
  1.0500000e-001
  1.0250000e-001
  1.0500000e-001
  1.0750000e-001
  1.1250000e-001
  1.0500000e-001
  1.0500000e-001
  1.0000000e-001
  1.0250000e-001
  1.0250000e-001
  1.0500000e-001
  1.0750000e-001
  1.0750000e-001
  1.0250000e-001
  1.0500000e-001
  2.3750000e-001
  2.2000000e-001
  1.1750000e-001
  1.0000000e-001
  6.7500000e-002
  5.2500000e-002
  9.7500000e-002
  1.1250000e-001
  9.2500000e-002
  7.5000000e-002
  1.0500000e-001
  1.2000000e-001
  1.1000000e-001
  1.0000000e-001
  1.2000000e-001
  1.4500000e-001
  1.4000000e-001
  1.3250000e-001
  1.4000000e-001
  1.5250000e-001
  1.5750000e-001
  1.5750000e-001
  1.6500000e-001
  1.8000000e-001
  1.9750000e-001
  2.1000000e-001
  2.0250000e-001
  1.9750000e-001
  1.9000000e-001
  1.7500000e-001
  1.5500000e-001
  1.5000000e-001
  1.2750000e-001
  1.1000000e-001
  9.2500000e-002
  8.5000000e-002
  8.2500000e-002
  7.7500000e-002
  7.5000000e-002
  7.7500000e-002
  7.2500000e-002
  7.2500000e-002
  7.0000000e-002
  7.0000000e-002
  6.7500000e-002
  7.2500000e-002
  7.0000000e-002
  6.5000000e-002
  6.2500000e-002
  5.5000000e-002
  3.7500000e-002
  5.0000000e-003
 -3.2500000e-002
 -4.2500000e-002
  2.5000000e-003
  1.0250000e-001
  3.2250000e-001
  6.0500000e-001
  8.9500000e-001
  1.2050000e+000
  1.5350000e+000
  1.8550000e+000
  2.1000000e+000
  2.2775000e+000
  2.3100000e+000
  2.0525000e+000
  1.4875000e+000
  8.2750000e-001
  3.4750000e-001
  6.2500000e-002
 -4.0000000e-002
 -5.7500000e-002
 -1.0000000e-001
 -1.5750000e-001
 -1.6500000e-001
 -1.2750000e-001
 -1.2750000e-001
 -1.6500000e-001
 -1.8000000e-001
 -1.6000000e-001
 -1.5250000e-001
 -1.7250000e-001
 -1.8750000e-001
 -1.7750000e-001
 -1.7250000e-001
 -1.8000000e-001
 -1.9500000e-001
 -1.9250000e-001
 -1.8250000e-001
 -1.9250000e-001
 -2.0250000e-001
 -2.0250000e-001
 -1.9750000e-001
 -2.0000000e-001
 -2.1000000e-001
 -2.1000000e-001
 -2.1000000e-001
 -2.1250000e-001
 -2.1750000e-001
 -2.2000000e-001
 -2.2000000e-001
 -2.2250000e-001
 -2.3000000e-001
 -2.3250000e-001
 -2.3000000e-001
 -2.3250000e-001
 -2.3500000e-001
 -2.4000000e-001
 -2.4000000e-001
 -2.4250000e-001
 -2.4500000e-001
 -2.4750000e-001
 -2.4750000e-001
 -2.5000000e-001
 -2.5000000e-001
 -2.5250000e-001
 -2.5500000e-001
 -2.6000000e-001
 -2.6250000e-001
 -2.6750000e-001
 -2.6750000e-001
 -2.6750000e-001
 -2.7000000e-001
 -2.7250000e-001
 -2.7250000e-001
 -2.6250000e-001
 -2.6250000e-001
 -2.5250000e-001
 -2.5000000e-001
 -2.4250000e-001
 -2.3250000e-001
 -2.2000000e-001
 -2.0750000e-001
 -1.9000000e-001
 -1.7250000e-001
 -1.5750000e-001
 -1.4000000e-001
 -1.1750000e-001
 -9.7500000e-002
 -7.5000000e-002
 -5.2500000e-002
 -2.5000000e-002
  7.5000000e-003
  3.2500000e-002
  5.0000000e-002
  7.2500000e-002
  9.2500000e-002
  1.0750000e-001
  1.1750000e-001
  1.3000000e-001
  1.4000000e-001
  1.4000000e-001
  1.4500000e-001
  1.4500000e-001
  1.4500000e-001
  1.4250000e-001
  1.4250000e-001
  1.3000000e-001
  1.3250000e-001
  1.2500000e-001
  1.2250000e-001
  1.1750000e-001
  1.1750000e-001
  1.1500000e-001
  1.1000000e-001
  1.0750000e-001
  1.0500000e-001
  1.0750000e-001
  1.1000000e-001
  1.0500000e-001
  1.0250000e-001
  9.7500000e-002
  9.7500000e-002
  9.7500000e-002
  1.0250000e-001
  1.0250000e-001
  9.7500000e-002
  1.0000000e-001
  1.0000000e-001
  1.0000000e-001
  1.0000000e-001
  1.0250000e-001
  1.0250000e-001
  1.0250000e-001
  9.7500000e-002
  9.5000000e-002
  9.2500000e-002
  1.0000000e-001
  1.0000000e-001
  2.7000000e-001
  1.8000000e-001
  1.0000000e-001
  8.2500000e-002
  4.7500000e-002
  4.7500000e-002
  9.2500000e-002
  1.0500000e-001
  7.7500000e-002
  6.5000000e-002
  9.2500000e-002
  1.0750000e-001
  9.5000000e-002
  9.5000000e-002
  1.1500000e-001
  1.3000000e-001
  1.2750000e-001
  1.2500000e-001
  1.3500000e-001
  1.4750000e-001
  1.4500000e-001
  1.4750000e-001
  1.5500000e-001
  1.7000000e-001
  1.8250000e-001
  1.9250000e-001
  1.8500000e-001
  1.8500000e-001
  1.7500000e-001
  1.5750000e-001
  1.4250000e-001
  1.3250000e-001
  1.1250000e-001
  9.2500000e-002
  7.7500000e-002
  7.0000000e-002
  6.7500000e-002
  6.0000000e-002
  6.0000000e-002
  6.0000000e-002
  6.0000000e-002
  5.7500000e-002
  5.2500000e-002
  5.0000000e-002
  5.2500000e-002
  5.5000000e-002
  5.5000000e-002
  5.2500000e-002
  5.7500000e-002
  4.2500000e-002
  1.7500000e-002
 -2.2500000e-002
 -4.5000000e-002
 -6.2500000e-002
 -3.7500000e-002
  6.7500000e-002
  2.7250000e-001
  5.5750000e-001
  8.4000000e-001
  1.1400000e+000
  1.4625000e+000
  1.7800000e+000
  2.0425000e+000
  2.2350000e+000
  2.2975000e+000
  2.0875000e+000
  1.5675000e+000
  9.1000000e-001
  4.0250000e-001
  9.5000000e-002
 -4.0000000e-002
 -7.2500000e-002
 -1.1500000e-001
 -1.7000000e-001
 -1.8500000e-001
 -1.5000000e-001
 -1.4250000e-001
 -1.7750000e-001
 -2.0000000e-001
 -1.8250000e-001
 -1.7250000e-001
 -1.9000000e-001
 -2.0250000e-001
 -1.9500000e-001
 -1.8500000e-001
 -1.9750000e-001
 -2.0500000e-001
 -2.0500000e-001
 -2.0000000e-001
 -2.0500000e-001
 -2.1750000e-001
 -2.2000000e-001
 -2.1500000e-001
 -2.2250000e-001
 -2.2750000e-001
 -2.3000000e-001
 -2.2000000e-001
 -2.2250000e-001
 -2.2750000e-001
 -2.3750000e-001
 -2.3500000e-001
 -2.4250000e-001
 -2.4500000e-001
 -2.4750000e-001
 -2.4750000e-001
 -2.5750000e-001
 -2.5500000e-001
 -2.5500000e-001
 -2.5750000e-001
 -2.6000000e-001
 -2.6000000e-001
 -2.6000000e-001
 -2.6500000e-001
 -2.6250000e-001
 -2.6250000e-001
 -2.6750000e-001
 -2.7250000e-001
 -2.7500000e-001
 -2.7500000e-001
 -2.7750000e-001
 -2.8500000e-001
 -2.8500000e-001
 -2.9000000e-001
 -2.9250000e-001
 -2.9250000e-001
 -2.8500000e-001
 -2.8500000e-001
 -2.8250000e-001
 -2.7500000e-001
 -2.6250000e-001
 -2.5750000e-001
 -2.3750000e-001
 -2.2000000e-001
 -2.0250000e-001
 -1.9500000e-001
 -1.7750000e-001
 -1.6000000e-001
 -1.3750000e-001
 -1.1500000e-001
 -9.5000000e-002
 -8.0000000e-002
 -5.7500000e-002
 -3.0000000e-002
  5.0000000e-003
  3.2500000e-002
  5.0000000e-002
  7.0000000e-002
  8.2500000e-002
  1.0000000e-001
  1.1000000e-001
  1.2000000e-001
  1.2250000e-001
  1.3000000e-001
  1.3000000e-001
  1.3000000e-001
  1.2750000e-001
  1.2750000e-001
  1.2000000e-001
  1.1750000e-001
  1.1500000e-001
  1.1500000e-001
  1.1250000e-001
  1.1250000e-001
  1.0750000e-001
  9.5000000e-002
  9.5000000e-002
  9.2500000e-002
  9.7500000e-002
  9.7500000e-002
  9.7500000e-002
  9.2500000e-002
  9.5000000e-002
  9.2500000e-002
  9.5000000e-002
  9.0000000e-002
  8.7500000e-002
  8.7500000e-002
  9.0000000e-002
  9.0000000e-002
  8.5000000e-002
  8.0000000e-002
  8.2500000e-002
  8.5000000e-002
  8.5000000e-002
  8.2500000e-002
  8.5000000e-002
  8.7500000e-002
  8.7500000e-002
  9.2500000e-002
  2.5750000e-001
  1.4250000e-001
  8.2500000e-002
  6.2500000e-002
  3.0000000e-002
  4.7500000e-002
  8.5000000e-002
  9.2500000e-002
  6.5000000e-002
  6.7500000e-002
  8.7500000e-002
  9.2500000e-002
  7.7500000e-002
  8.7500000e-002
  1.1250000e-001
  1.3000000e-001
  1.1750000e-001
  1.1000000e-001
  1.2000000e-001
  1.3000000e-001
  1.3000000e-001
  1.3500000e-001
  1.5000000e-001
  1.6500000e-001
  1.8000000e-001
  1.8500000e-001
  1.7750000e-001
  1.7000000e-001
  1.6500000e-001
  1.4500000e-001
  1.3750000e-001
  1.2000000e-001
  9.7500000e-002
  7.2500000e-002
  6.0000000e-002
  5.5000000e-002
  5.2500000e-002
  4.5000000e-002
  4.7500000e-002
  5.5000000e-002
  6.0000000e-002
  5.5000000e-002
  5.5000000e-002
  5.0000000e-002
  4.5000000e-002
  4.2500000e-002
  4.7500000e-002
  4.7500000e-002
  4.2500000e-002
  3.0000000e-002
  2.5000000e-003
 -4.0000000e-002
 -7.2500000e-002
 -7.2500000e-002
 -3.5000000e-002
  9.7500000e-002
  3.2250000e-001
  6.0500000e-001
  8.7500000e-001
  1.1675000e+000
  1.4725000e+000
  1.7825000e+000
  2.0250000e+000
  2.2100000e+000
  2.2300000e+000
  1.9750000e+000
  1.4000000e+000
  7.9500000e-001
  3.5000000e-001
  6.5000000e-002
 -6.0000000e-002
 -9.5000000e-002
 -1.4250000e-001
 -1.9250000e-001
 -1.8250000e-001
 -1.4750000e-001
 -1.6000000e-001
 -1.9500000e-001
 -2.0000000e-001
 -1.8750000e-001
 -1.8500000e-001
 -2.0750000e-001
 -2.2000000e-001
 -2.0500000e-001
 -1.9500000e-001
 -2.1250000e-001
 -2.2250000e-001
 -2.1500000e-001
 -2.0750000e-001
 -2.1500000e-001
 -2.2000000e-001
 -2.2750000e-001
 -2.2750000e-001
 -2.3000000e-001
 -2.3500000e-001
 -2.4000000e-001
 -2.4000000e-001
 -2.4250000e-001
 -2.4750000e-001
 -2.4750000e-001
 -2.5250000e-001
 -2.5250000e-001
 -2.5500000e-001
 -2.5500000e-001
 -2.5500000e-001
 -2.5750000e-001
 -2.6500000e-001
 -2.6750000e-001
 -2.7250000e-001
 -2.7000000e-001
 -2.7500000e-001
 -2.7750000e-001
 -2.8250000e-001
 -2.8250000e-001
 -2.8250000e-001
 -2.8500000e-001
 -2.9000000e-001
 -2.9250000e-001
 -2.9500000e-001
 -2.9500000e-001
 -2.9500000e-001
 -3.0000000e-001
 -2.9750000e-001
 -2.9750000e-001
 -2.9500000e-001
 -2.9750000e-001
 -2.9500000e-001
 -2.9250000e-001
 -2.8500000e-001
 -2.8000000e-001
 -2.6750000e-001
 -2.5500000e-001
 -2.4000000e-001
 -2.3000000e-001
 -2.0750000e-001
 -1.8750000e-001
 -1.6500000e-001
 -1.5250000e-001
 -1.3250000e-001
 -1.1500000e-001
 -8.7500000e-002
 -6.5000000e-002
 -3.7500000e-002
 -2.0000000e-002
  1.0000000e-002
  2.5000000e-002
  4.7500000e-002
  7.0000000e-002
  8.2500000e-002
  9.2500000e-002
  9.7500000e-002
  1.0000000e-001
  1.0500000e-001
  1.1250000e-001
  1.0750000e-001
  1.0000000e-001
  1.0000000e-001
  1.0000000e-001
  9.7500000e-002
  9.7500000e-002
  9.2500000e-002
  9.2500000e-002
  8.7500000e-002
  8.7500000e-002
  8.2500000e-002
  8.0000000e-002
  7.0000000e-002
  7.2500000e-002
  7.7500000e-002
  7.7500000e-002
  7.5000000e-002
  7.5000000e-002
  7.5000000e-002
  7.0000000e-002
  7.0000000e-002
  6.7500000e-002
  6.7500000e-002
  6.7500000e-002
  7.0000000e-002
  7.0000000e-002
  7.5000000e-002
  7.0000000e-002
  6.2500000e-002
  6.0000000e-002
  6.2500000e-002
  6.0000000e-002
  6.0000000e-002
  6.0000000e-002
  9.0000000e-002
  2.1000000e-001
  8.7500000e-002
  5.2500000e-002
  3.2500000e-002
  1.0000000e-002
  3.7500000e-002
  7.0000000e-002
  5.7500000e-002
  3.7500000e-002
  5.0000000e-002
  7.5000000e-002
  7.0000000e-002
  5.5000000e-002
  6.5000000e-002
  8.7500000e-002
  9.2500000e-002
  8.7500000e-002
  9.0000000e-002
  1.0250000e-001
  1.0250000e-001
  1.0250000e-001
  1.0750000e-001
  1.2250000e-001
  1.3750000e-001
  1.5500000e-001
  1.6000000e-001
  1.5750000e-001
  1.4750000e-001
  1.3000000e-001
  1.1250000e-001
  9.7500000e-002
  8.2500000e-002
  6.5000000e-002
  5.0000000e-002
  3.7500000e-002
  3.5000000e-002
  3.0000000e-002
  2.2500000e-002
  1.7500000e-002
  2.2500000e-002
  2.0000000e-002
  2.0000000e-002
  1.7500000e-002
  1.7500000e-002
  1.7500000e-002
  1.7500000e-002
  1.5000000e-002
  1.7500000e-002
  7.5000000e-003
 -1.7500000e-002
 -4.7500000e-002
 -8.0000000e-002
 -1.0250000e-001
 -9.7500000e-002
 -4.0000000e-002
  1.2000000e-001
  3.7750000e-001
  6.5750000e-001
  9.3750000e-001
  1.2400000e+000
  1.5550000e+000
  1.8550000e+000
  2.0675000e+000
  2.2150000e+000
  2.1450000e+000
  1.7900000e+000
  1.1600000e+000
  5.9000000e-001
  1.9250000e-001
 -4.0000000e-002
 -1.0500000e-001
 -1.3500000e-001
 -1.8500000e-001
 -2.3000000e-001
 -2.1000000e-001
 -1.8250000e-001
 -2.0250000e-001
 -2.3750000e-001
 -2.3000000e-001
 -2.1000000e-001
 -2.2250000e-001
 -2.4750000e-001
 -2.4750000e-001
 -2.3500000e-001
 -2.4000000e-001
 -2.5250000e-001
 -2.5750000e-001
 -2.4750000e-001
 -2.5000000e-001
 -2.6250000e-001
 -2.6750000e-001
 -2.6250000e-001
 -2.6500000e-001
 -2.7250000e-001
 -2.8000000e-001
 -2.7500000e-001
 -2.7750000e-001
 -2.8250000e-001
 -2.9000000e-001
 -2.9000000e-001
 -2.8750000e-001
 -2.8750000e-001
 -3.0000000e-001
 -3.0000000e-001
 -2.9500000e-001
 -3.0000000e-001
 -3.0250000e-001
 -3.0250000e-001
 -3.0500000e-001
 -3.1000000e-001
 -3.1000000e-001
 -3.1500000e-001
 -3.2000000e-001
 -3.2000000e-001
 -3.2000000e-001
 -3.2750000e-001
 -3.2750000e-001
 -3.3000000e-001
 -3.3000000e-001
 -3.3750000e-001
 -3.3500000e-001
 -3.4000000e-001
 -3.4250000e-001
 -3.4250000e-001
 -3.3750000e-001
 -3.4000000e-001
 -3.3500000e-001
 -3.3250000e-001
 -3.2500000e-001
 -3.1000000e-001
 -3.0000000e-001
 -2.9000000e-001
 -2.7500000e-001
 -2.5750000e-001
 -2.4500000e-001
 -2.2250000e-001
 -2.0250000e-001
 -1.8000000e-001
 -1.6000000e-001
 -1.3750000e-001
 -1.1750000e-001
 -9.2500000e-002
 -6.7500000e-002
 -4.5000000e-002
 -2.2500000e-002
  1.0000000e-002
  2.7500000e-002
  4.0000000e-002
  4.7500000e-002
  5.7500000e-002
  6.2500000e-002
  6.7500000e-002
  7.0000000e-002
  7.2500000e-002
  7.2500000e-002
  7.0000000e-002
  6.2500000e-002
  6.2500000e-002
  5.7500000e-002
  5.7500000e-002
  5.7500000e-002
  5.0000000e-002
  4.7500000e-002
  4.5000000e-002
  4.2500000e-002
  3.7500000e-002
  4.0000000e-002
  3.7500000e-002
  3.7500000e-002
  3.7500000e-002
  3.7500000e-002
  3.7500000e-002
  3.7500000e-002
  3.7500000e-002
  3.7500000e-002
  4.2500000e-002
  3.7500000e-002
  3.5000000e-002
  3.7500000e-002
  3.7500000e-002
  3.5000000e-002
  3.7500000e-002
  4.0000000e-002
  4.0000000e-002
  4.0000000e-002
  4.0000000e-002
  3.5000000e-002
  3.2500000e-002
  1.2500000e-001
  1.6500000e-001
  5.2500000e-002
  3.2500000e-002
  0.0000000e+000
 -3.0000000e-002
  1.7500000e-002
  4.5000000e-002
  2.5000000e-002
  7.5000000e-003
  2.5000000e-002
  5.2500000e-002
  4.5000000e-002
  3.5000000e-002
  5.0000000e-002
  7.0000000e-002
  7.7500000e-002
  6.0000000e-002
  6.2500000e-002
  8.0000000e-002
  8.5000000e-002
  8.5000000e-002
  9.7500000e-002
  1.1000000e-001
  1.2500000e-001
  1.3750000e-001
  1.3500000e-001
  1.2750000e-001
  1.2000000e-001
  1.0250000e-001
  8.7500000e-002
  7.7500000e-002
  6.0000000e-002
  4.0000000e-002
  2.7500000e-002
  1.7500000e-002
  1.5000000e-002
  7.5000000e-003
  2.5000000e-003
  2.5000000e-003
  5.0000000e-003
  5.0000000e-003
  0.0000000e+000
  0.0000000e+000
  2.5000000e-003
  2.5000000e-003
  0.0000000e+000
  0.0000000e+000
 -1.5000000e-002
 -2.2500000e-002
 -4.2500000e-002
 -7.0000000e-002
 -1.0250000e-001
 -1.1000000e-001
 -8.5000000e-002
  2.0000000e-002
  2.1750000e-001
  5.0250000e-001
  7.9000000e-001
  1.0950000e+000
  1.4175000e+000
  1.7400000e+000
  2.0000000e+000
  2.1850000e+000
  2.2425000e+000
  2.0325000e+000
  1.5150000e+000
  8.4750000e-001
  3.4000000e-001
  3.0000000e-002
 -1.0250000e-001
 -1.2750000e-001
 -1.6000000e-001
 -2.1750000e-001
 -2.3500000e-001
 -2.0000000e-001
 -1.8750000e-001
 -2.2500000e-001
 -2.4500000e-001
 -2.2500000e-001
 -2.1500000e-001
 -2.4000000e-001
 -2.5000000e-001
 -2.4500000e-001
 -2.3500000e-001
 -2.4500000e-001
 -2.5750000e-001
 -2.5250000e-001
 -2.4750000e-001
 -2.5750000e-001
 -2.6250000e-001
 -2.6500000e-001
 -2.6000000e-001
 -2.6750000e-001
 -2.7250000e-001
 -2.7750000e-001
 -2.7250000e-001
 -2.7500000e-001
 -2.8000000e-001
 -2.8250000e-001
 -2.8250000e-001
 -2.8500000e-001
 -2.9000000e-001
 -2.9000000e-001
 -2.9250000e-001
 -2.9500000e-001
 -2.9750000e-001
 -3.0000000e-001
 -3.0250000e-001
 -3.0000000e-001
 -3.0750000e-001
 -3.0750000e-001
 -3.1000000e-001
 -3.1000000e-001
 -3.1750000e-001
 -3.1750000e-001
 -3.1750000e-001
 -3.2000000e-001
 -3.2500000e-001
 -3.3250000e-001
 -3.3250000e-001
 -3.3250000e-001
 -3.3000000e-001
 -3.3000000e-001
 -3.3000000e-001
 -3.3000000e-001
 -3.2250000e-001
 -3.2000000e-001
 -3.1000000e-001
 -3.0250000e-001
 -2.9000000e-001
 -2.8250000e-001
 -2.7000000e-001
 -2.5750000e-001
 -2.4250000e-001
 -2.2250000e-001
 -2.0250000e-001
 -1.8250000e-001
 -1.6250000e-001
 -1.4500000e-001
 -1.1750000e-001
 -9.0000000e-002
 -6.5000000e-002
 -4.2500000e-002
 -2.0000000e-002
  1.2500000e-002
  2.7500000e-002
  4.7500000e-002
  6.0000000e-002
  7.5000000e-002
  7.7500000e-002
  8.2500000e-002
  8.0000000e-002
  8.2500000e-002
  8.2500000e-002
  8.2500000e-002
  7.7500000e-002
  7.7500000e-002
  7.2500000e-002
  7.0000000e-002
  6.2500000e-002
  5.7500000e-002
  5.7500000e-002
  5.7500000e-002
  5.0000000e-002
  5.0000000e-002
  4.7500000e-002
  4.2500000e-002
  4.5000000e-002
  5.2500000e-002
  5.2500000e-002
  4.7500000e-002
  5.0000000e-002
  4.5000000e-002
  4.5000000e-002
  4.7500000e-002
  5.0000000e-002
  4.5000000e-002
  4.5000000e-002
  4.2500000e-002
  4.2500000e-002
  4.5000000e-002
  4.7500000e-002
  4.7500000e-002
  5.0000000e-002
  4.7500000e-002
  4.5000000e-002
  4.2500000e-002
  4.2500000e-002
  1.9000000e-001
  1.5000000e-001
  6.0000000e-002
  3.7500000e-002
  2.5000000e-003
 -1.5000000e-002
  3.7500000e-002
  5.2500000e-002
  3.0000000e-002
  2.0000000e-002
  4.7500000e-002
  6.0000000e-002
  5.0000000e-002
  4.0000000e-002
  6.0000000e-002
  7.7500000e-002
  7.7500000e-002
  6.7500000e-002
  8.0000000e-002
  9.5000000e-002
  9.7500000e-002
  9.2500000e-002
  1.1000000e-001
  1.2750000e-001
  1.4250000e-001
  1.4750000e-001
  1.4500000e-001
  1.4500000e-001
  1.3500000e-001
  1.1750000e-001
  9.7500000e-002
  8.7500000e-002
  6.5000000e-002
  4.7500000e-002
  3.5000000e-002
  2.5000000e-002
  2.5000000e-002
  2.5000000e-002
  1.7500000e-002
  1.5000000e-002
  1.5000000e-002
  1.5000000e-002
  1.2500000e-002
  1.5000000e-002
  1.2500000e-002
  1.5000000e-002
  1.0000000e-002
  1.0000000e-002
  5.0000000e-003
  0.0000000e+000
 -3.2500000e-002
 -6.0000000e-002
 -9.0000000e-002
 -1.0250000e-001
 -6.5000000e-002
  6.7500000e-002
  2.9750000e-001
  5.9000000e-001
  8.7000000e-001
  1.1675000e+000
  1.4850000e+000
  1.7975000e+000
  2.0425000e+000
  2.2225000e+000
  2.2275000e+000
  1.9450000e+000
  1.3575000e+000
  7.3250000e-001
  2.9000000e-001
  3.0000000e-002
 -7.7500000e-002
 -1.1500000e-001
 -1.6500000e-001
 -2.2000000e-001
 -2.1750000e-001
 -1.8000000e-001
 -1.8250000e-001
 -2.2250000e-001
 -2.3000000e-001
 -2.1000000e-001
 -2.0500000e-001
 -2.2750000e-001
 -2.4000000e-001
 -2.2250000e-001
 -2.2250000e-001
 -2.3750000e-001
 -2.4500000e-001
 -2.3750000e-001
 -2.3750000e-001
 -2.4250000e-001
 -2.5250000e-001
 -2.5000000e-001
 -2.5000000e-001
 -2.5500000e-001
 -2.6500000e-001
 -2.6500000e-001
 -2.6250000e-001
 -2.6000000e-001
 -2.6250000e-001
 -2.6750000e-001
 -2.7500000e-001
 -2.8000000e-001
 -2.8250000e-001
 -2.8500000e-001
 -2.8250000e-001
 -2.8000000e-001
 -2.8000000e-001
 -2.8500000e-001
 -2.8250000e-001
 -2.8750000e-001
 -2.9000000e-001
 -3.0000000e-001
 -3.0000000e-001
 -3.0500000e-001
 -3.0500000e-001
 -3.0500000e-001
 -3.0500000e-001
 -3.1000000e-001
 -3.1000000e-001
 -3.1000000e-001
 -3.1250000e-001
 -3.2000000e-001
 -3.2250000e-001
 -3.2500000e-001
 -3.1750000e-001
 -3.1250000e-001
 -3.0500000e-001
 -3.0250000e-001
 -2.9750000e-001
 -2.8750000e-001
 -2.8000000e-001
 -2.6250000e-001
 -2.5000000e-001
 -2.3500000e-001
 -2.2250000e-001
 -2.0000000e-001
 -1.8500000e-001
 -1.7000000e-001
 -1.5000000e-001
 -1.2000000e-001
 -1.0000000e-001
 -7.5000000e-002
 -5.2500000e-002
 -3.0000000e-002
  2.5000000e-003
  2.7500000e-002
  4.2500000e-002
  5.7500000e-002
  7.0000000e-002
  8.0000000e-002
  9.2500000e-002
  1.0250000e-001
  1.0500000e-001
  1.0250000e-001
  1.0000000e-001
  1.0000000e-001
  9.2500000e-002
  8.5000000e-002
  9.0000000e-002
  8.2500000e-002
  8.0000000e-002
  8.2500000e-002
  8.2500000e-002
  8.0000000e-002
  7.7500000e-002
  7.5000000e-002
  7.2500000e-002
  7.0000000e-002
  7.2500000e-002
  7.0000000e-002
  6.7500000e-002
  6.5000000e-002
  7.0000000e-002
  7.2500000e-002
  6.7500000e-002
  6.2500000e-002
  6.2500000e-002
  6.5000000e-002
  7.2500000e-002
  7.5000000e-002
  7.0000000e-002
  7.0000000e-002
  6.2500000e-002
  6.7500000e-002
  7.0000000e-002
  7.7500000e-002
  6.7500000e-002
  6.5000000e-002
  6.2500000e-002
  2.2000000e-001
  1.2500000e-001
  6.7500000e-002
  4.7500000e-002
  1.5000000e-002
  2.5000000e-002
  6.5000000e-002
  6.7500000e-002
  4.7500000e-002
  4.7500000e-002
  7.5000000e-002
  8.2500000e-002
  6.7500000e-002
  6.7500000e-002
  8.5000000e-002
  9.2500000e-002
  8.7500000e-002
  9.0000000e-002
  1.1250000e-001
  1.2500000e-001
  1.2000000e-001
  1.1750000e-001
  1.3000000e-001
  1.4500000e-001
  1.5500000e-001
  1.6750000e-001
  1.6500000e-001
  1.6250000e-001
  1.5250000e-001
  1.3750000e-001
  1.1500000e-001
  1.0250000e-001
  8.2500000e-002
  6.7500000e-002
  6.2500000e-002
  5.7500000e-002
  5.0000000e-002
  4.0000000e-002
  3.5000000e-002
  3.7500000e-002
  3.2500000e-002
  3.0000000e-002
  3.0000000e-002
  3.5000000e-002
  4.0000000e-002
  3.7500000e-002
  3.7500000e-002
  3.2500000e-002
  3.5000000e-002
  1.7500000e-002
 -2.0000000e-002
 -6.0000000e-002
 -9.0000000e-002
 -8.7500000e-002
 -2.5000000e-002
  1.3000000e-001
  3.8750000e-001
  6.7000000e-001
  9.3750000e-001
  1.2300000e+000
  1.5250000e+000
  1.8200000e+000
  2.0375000e+000
  2.2000000e+000
  2.1575000e+000
  1.8325000e+000
  1.2300000e+000
  6.7500000e-001
  2.7750000e-001
  3.2500000e-002
 -7.2500000e-002
 -1.1250000e-001
 -1.6750000e-001
 -2.0250000e-001
 -1.8250000e-001
 -1.5250000e-001
 -1.7500000e-001
 -2.0750000e-001
 -2.0000000e-001
 -1.7750000e-001
 -1.9250000e-001
 -2.2000000e-001
 -2.2500000e-001
 -2.1000000e-001
 -2.1250000e-001
 -2.2250000e-001
 -2.2250000e-001
 -2.1750000e-001
 -2.1750000e-001
 -2.2750000e-001
 -2.3250000e-001
 -2.3250000e-001
 -2.3000000e-001
 -2.4250000e-001
 -2.4750000e-001
 -2.5000000e-001
 -2.4250000e-001
 -2.5000000e-001
 -2.5250000e-001
 -2.5500000e-001
 -2.5250000e-001
 -2.5750000e-001
 -2.5750000e-001
 -2.6250000e-001
 -2.6250000e-001
 -2.6750000e-001
 -2.7250000e-001
 -2.7500000e-001
 -2.7500000e-001
 -2.8000000e-001
 -2.8250000e-001
 -2.8250000e-001
 -2.8000000e-001
 -2.8250000e-001
 -2.8750000e-001
 -2.9250000e-001
 -2.9250000e-001
 -2.9750000e-001
 -3.0250000e-001
 -3.0500000e-001
 -3.1250000e-001
 -3.0750000e-001
 -3.1250000e-001
 -3.0750000e-001
 -3.1500000e-001
 -3.1000000e-001
 -3.0500000e-001
 -2.9250000e-001
 -2.8750000e-001
 -2.7500000e-001
 -2.6250000e-001
 -2.5750000e-001
 -2.4750000e-001
 -2.3250000e-001
 -2.1250000e-001
 -1.9250000e-001
 -1.8250000e-001
 -1.6500000e-001
 -1.4250000e-001
 -1.1250000e-001
 -9.0000000e-002
 -6.2500000e-002
 -4.2500000e-002
 -2.5000000e-002
  7.5000000e-003
  2.5000000e-002
  4.7500000e-002
  5.7500000e-002
  7.0000000e-002
  7.5000000e-002
  8.7500000e-002
  9.5000000e-002
  1.0000000e-001
  9.7500000e-002
  9.2500000e-002
  8.5000000e-002
  8.7500000e-002
  8.5000000e-002
  8.5000000e-002
  8.5000000e-002
  8.0000000e-002
  7.7500000e-002
  7.7500000e-002
  7.2500000e-002
  6.5000000e-002
  6.5000000e-002
  6.7500000e-002
  6.7500000e-002
  6.7500000e-002
  7.0000000e-002
  6.7500000e-002
  6.5000000e-002
  6.5000000e-002
  7.0000000e-002
  7.2500000e-002
  7.5000000e-002
  6.7500000e-002
  6.5000000e-002
  6.2500000e-002
  6.7500000e-002
  7.0000000e-002
  7.0000000e-002
  6.2500000e-002
  6.0000000e-002
  6.0000000e-002
  6.0000000e-002
  5.7500000e-002
  6.0000000e-002
  7.5000000e-002
  2.1750000e-001
  1.0000000e-001
  6.2500000e-002
  4.0000000e-002
  1.2500000e-002
  3.0000000e-002
  6.2500000e-002
  6.0000000e-002
  3.7500000e-002
  4.7500000e-002
  7.2500000e-002
  7.5000000e-002
  6.2500000e-002
  6.7500000e-002
  8.5000000e-002
  9.5000000e-002
  8.2500000e-002
  8.5000000e-002
  9.7500000e-002
  1.1750000e-001
  1.2250000e-001
  1.2500000e-001
  1.3000000e-001
  1.3750000e-001
  1.5000000e-001
  1.6000000e-001
  1.6500000e-001
  1.6000000e-001
  1.4500000e-001
  1.2000000e-001
  1.0750000e-001
  9.5000000e-002
  7.7500000e-002
  6.2500000e-002
  4.7500000e-002
  3.7500000e-002
  3.5000000e-002
  3.0000000e-002
  3.0000000e-002
  2.5000000e-002
  3.2500000e-002
  2.7500000e-002
  2.7500000e-002
  2.5000000e-002
  2.7500000e-002
  3.0000000e-002
  2.5000000e-002
  2.5000000e-002
  2.0000000e-002
  7.5000000e-003
 -3.5000000e-002
 -7.0000000e-002
 -9.0000000e-002
 -7.7500000e-002
  0.0000000e+000
  1.6250000e-001
  4.2500000e-001
  7.0250000e-001
  9.8500000e-001
  1.2900000e+000
  1.6025000e+000
  1.8975000e+000
  2.0975000e+000
  2.2300000e+000
  2.1300000e+000
  1.7500000e+000
  1.1175000e+000
  5.7750000e-001
  2.0000000e-001
 -1.5000000e-002
 -8.0000000e-002
 -1.2250000e-001
 -1.8250000e-001
 -2.1500000e-001
 -1.9000000e-001
 -1.7000000e-001
 -1.8750000e-001
 -2.2000000e-001
 -2.0750000e-001
 -1.9500000e-001
 -2.0500000e-001
 -2.2750000e-001
 -2.2250000e-001
 -2.1250000e-001
 -2.1750000e-001
 -2.3500000e-001
 -2.3000000e-001
 -2.2500000e-001
 -2.3250000e-001
 -2.4750000e-001
 -2.4500000e-001
 -2.4000000e-001
 -2.3750000e-001
 -2.5000000e-001
 -2.5500000e-001
 -2.5250000e-001
 -2.5000000e-001
 -2.5000000e-001
 -2.6000000e-001
 -2.6250000e-001
 -2.6750000e-001
 -2.7250000e-001
 -2.7250000e-001
 -2.6750000e-001
 -2.6750000e-001
 -2.7000000e-001
 -2.7500000e-001
 -2.8000000e-001
 -2.8250000e-001
 -2.8000000e-001
 -2.8750000e-001
 -2.8750000e-001
 -2.9000000e-001
 -2.8750000e-001
 -2.9500000e-001
 -2.9750000e-001
 -2.9750000e-001
 -3.0000000e-001
 -3.0500000e-001
 -3.0750000e-001
 -3.0250000e-001
 -3.0500000e-001
 -3.0750000e-001
 -3.0500000e-001
 -3.0500000e-001
 -3.1000000e-001
 -3.0500000e-001
 -2.9250000e-001
 -2.8500000e-001
 -2.7500000e-001
 -2.6250000e-001
 -2.5250000e-001
 -2.4000000e-001
 -2.2000000e-001
 -1.9750000e-001
 -1.8250000e-001
 -1.6000000e-001
 -1.4250000e-001
 -1.2250000e-001
 -1.0000000e-001
 -7.5000000e-002
 -5.0000000e-002
 -2.5000000e-002
  2.5000000e-003
  2.7500000e-002
  4.7500000e-002
  6.2500000e-002
  7.5000000e-002
  8.2500000e-002
  9.5000000e-002
  9.7500000e-002
  1.0500000e-001
  1.1000000e-001
  1.1000000e-001
  1.0750000e-001
  1.0500000e-001
  1.0250000e-001
  9.7500000e-002
  9.0000000e-002
  8.5000000e-002
  8.0000000e-002
  8.0000000e-002
  7.7500000e-002
  7.5000000e-002
  7.7500000e-002
  7.7500000e-002
  7.7500000e-002
  7.7500000e-002
  7.2500000e-002
  7.5000000e-002
  7.5000000e-002
  7.5000000e-002
  7.2500000e-002
  7.5000000e-002
  7.5000000e-002
  7.2500000e-002
  7.5000000e-002
  7.7500000e-002
  7.5000000e-002
  7.2500000e-002
  7.7500000e-002
  7.2500000e-002
  7.5000000e-002
  7.7500000e-002
  7.7500000e-002
  7.0000000e-002
  7.2500000e-002
  7.2500000e-002
  1.2500000e-001
  2.1250000e-001
  9.5000000e-002
  6.7500000e-002
  4.0000000e-002
  1.7500000e-002
  4.7500000e-002
  8.5000000e-002
  7.0000000e-002
  5.0000000e-002
  6.2500000e-002
  8.2500000e-002
  7.7500000e-002
  6.7500000e-002
  8.0000000e-002
  1.0000000e-001
  1.0250000e-001
  9.7500000e-002
  9.7500000e-002
  1.1500000e-001
  1.2000000e-001
  1.1750000e-001
  1.2500000e-001
  1.4000000e-001
  1.5250000e-001
  1.6750000e-001
  1.6750000e-001
  1.6750000e-001
  1.6000000e-001
  1.4250000e-001
  1.2500000e-001
  1.1500000e-001
  9.7500000e-002
  7.5000000e-002
  6.0000000e-002
  4.7500000e-002
  4.5000000e-002
  4.2500000e-002
  3.7500000e-002
  4.0000000e-002
  3.7500000e-002
  3.5000000e-002
  3.0000000e-002
  2.7500000e-002
  3.2500000e-002
  3.0000000e-002
  3.0000000e-002
  2.2500000e-002
  2.7500000e-002
  2.2500000e-002
  0.0000000e+000
 -5.0000000e-002
 -8.0000000e-002
 -9.0000000e-002
 -6.0000000e-002
  5.5000000e-002
  2.7000000e-001
  5.5500000e-001
  8.3500000e-001
  1.1350000e+000
  1.4575000e+000
  1.7700000e+000
  2.0150000e+000
  2.1950000e+000
  2.2425000e+000
  2.0175000e+000
  1.4775000e+000
  8.3000000e-001
  3.5250000e-001
  6.0000000e-002
 -6.2500000e-002
 -9.5000000e-002
 -1.3750000e-001
 -1.9750000e-001
 -2.0750000e-001
 -1.6500000e-001
 -1.6500000e-001
 -2.0250000e-001
 -2.1000000e-001
 -1.9250000e-001
 -1.9000000e-001
 -2.1250000e-001
 -2.2750000e-001
 -2.1750000e-001
 -2.0750000e-001
 -2.2000000e-001
 -2.3000000e-001
 -2.2500000e-001
 -2.2000000e-001
 -2.2750000e-001
 -2.4000000e-001
 -2.3500000e-001
 -2.3000000e-001
 -2.3500000e-001
 -2.4250000e-001
 -2.4750000e-001
 -2.4500000e-001
 -2.5000000e-001
 -2.5000000e-001
 -2.5500000e-001
 -2.5250000e-001
 -2.5500000e-001
 -2.6250000e-001
 -2.6500000e-001
 -2.6250000e-001
 -2.6750000e-001
 -2.7250000e-001
 -2.7000000e-001
 -2.7250000e-001
 -2.8000000e-001
 -2.7750000e-001
 -2.7750000e-001
 -2.8250000e-001
 -2.8250000e-001
 -2.8500000e-001
 -2.9000000e-001
 -2.9000000e-001
 -2.9250000e-001
 -2.9750000e-001
 -3.0000000e-001
 -3.0250000e-001
 -3.0000000e-001
 -3.0250000e-001
 -3.0000000e-001
 -3.0000000e-001
 -3.0000000e-001
 -3.0000000e-001
 -2.9000000e-001
 -2.8500000e-001
 -2.7750000e-001
 -2.6750000e-001
 -2.5000000e-001
 -2.4000000e-001
 -2.2250000e-001
 -2.1000000e-001
 -1.9250000e-001
 -1.6750000e-001
 -1.5250000e-001
 -1.3250000e-001
 -1.1000000e-001
 -8.7500000e-002
 -6.5000000e-002
 -3.7500000e-002
  0.0000000e+000
  2.2500000e-002
  3.7500000e-002
  5.5000000e-002
  6.7500000e-002
  8.0000000e-002
  8.7500000e-002
  9.7500000e-002
  1.0250000e-001
  1.0750000e-001
  1.0750000e-001
  1.0500000e-001
  1.0000000e-001
  9.7500000e-002
  9.7500000e-002
  9.2500000e-002
  8.7500000e-002
  8.0000000e-002
  8.0000000e-002
  7.7500000e-002
  7.5000000e-002
  7.0000000e-002
  6.7500000e-002
  6.0000000e-002
  6.5000000e-002
  6.2500000e-002
  6.7500000e-002
  6.2500000e-002
  6.2500000e-002
  6.0000000e-002
  6.2500000e-002
  6.0000000e-002
  6.0000000e-002
  5.7500000e-002
  6.0000000e-002
  6.0000000e-002
  6.2500000e-002
  5.7500000e-002
  5.7500000e-002
  5.7500000e-002
  5.7500000e-002
  5.7500000e-002
  5.7500000e-002
  6.0000000e-002
  6.0000000e-002
  5.7500000e-002
  1.7500000e-001
  1.7750000e-001
  7.0000000e-002
  5.0000000e-002
  1.5000000e-002
  5.0000000e-003
  4.0000000e-002
  6.5000000e-002
  3.7500000e-002
  2.7500000e-002
  4.2500000e-002
  6.2500000e-002
  5.7500000e-002
  4.5000000e-002
  6.2500000e-002
  8.7500000e-002
  8.2500000e-002
  7.5000000e-002
  8.0000000e-002
  9.7500000e-002
  1.0000000e-001
  1.0000000e-001
  1.1250000e-001
  1.2500000e-001
  1.4000000e-001
  1.4750000e-001
  1.4500000e-001
  1.3750000e-001
  1.3000000e-001
  1.1500000e-001
  9.7500000e-002
  9.0000000e-002
  7.5000000e-002
  5.0000000e-002
  3.5000000e-002
  2.0000000e-002
  1.7500000e-002
  1.5000000e-002
  1.2500000e-002
  1.2500000e-002
  1.5000000e-002
  7.5000000e-003
  1.0000000e-002
  1.0000000e-002
  1.0000000e-002
  7.5000000e-003
  1.0000000e-002
  7.5000000e-003
  0.0000000e+000
 -2.2500000e-002
 -4.7500000e-002
 -8.0000000e-002
 -1.0750000e-001
 -1.0250000e-001
 -6.2500000e-002
  7.7500000e-002
  3.0750000e-001
  6.0000000e-001
  8.8000000e-001
  1.1900000e+000
  1.5075000e+000
  1.8150000e+000
  2.0400000e+000
  2.2075000e+000
  2.1950000e+000
  1.9050000e+000
  1.2975000e+000
  6.8250000e-001
  2.5750000e-001
  5.0000000e-003
 -1.0000000e-001
 -1.3250000e-001
 -1.8500000e-001
 -2.3250000e-001
 -2.2250000e-001
 -1.8500000e-001
 -1.9500000e-001
 -2.3750000e-001
 -2.4000000e-001
 -2.2250000e-001
 -2.1750000e-001
 -2.4250000e-001
 -2.5000000e-001
 -2.3750000e-001
 -2.3750000e-001
 -2.5500000e-001
 -2.6250000e-001
 -2.5500000e-001
 -2.5000000e-001
 -2.6250000e-001
 -2.6750000e-001
 -2.7000000e-001
 -2.6500000e-001
 -2.7250000e-001
 -2.7750000e-001
 -2.7750000e-001
 -2.7750000e-001
 -2.7750000e-001
 -2.8750000e-001
 -2.9250000e-001
 -2.8750000e-001
 -2.9000000e-001
 -2.9750000e-001
 -2.9750000e-001
 -3.0000000e-001
 -3.0000000e-001
 -3.0250000e-001
 -3.0750000e-001
 -3.1500000e-001
 -3.1250000e-001
 -3.1250000e-001
 -3.1500000e-001
 -3.1250000e-001
 -3.1250000e-001
 -3.2000000e-001
 -3.2500000e-001
 -3.3500000e-001
 -3.3250000e-001
 -3.3750000e-001
 -3.4000000e-001
 -3.3750000e-001
 -3.3250000e-001
 -3.3000000e-001
 -3.3500000e-001
 -3.3500000e-001
 -3.3750000e-001
 -3.3750000e-001
 -3.3250000e-001
 -3.1750000e-001
 -3.1000000e-001
 -2.9750000e-001
 -2.8500000e-001
 -2.7250000e-001
 -2.6000000e-001
 -2.4250000e-001
 -2.2250000e-001
 -2.0000000e-001
 -1.8500000e-001
 -1.6000000e-001
 -1.3750000e-001
 -1.1000000e-001
 -9.0000000e-002
 -7.2500000e-002
 -4.7500000e-002
 -2.5000000e-002
  7.5000000e-003
  2.7500000e-002
  4.2500000e-002
  5.0000000e-002
  6.0000000e-002
  6.7500000e-002
  7.7500000e-002
  7.7500000e-002
  8.0000000e-002
  7.7500000e-002
  7.5000000e-002
  7.5000000e-002
  7.7500000e-002
  7.0000000e-002
  6.2500000e-002
  5.7500000e-002
  5.7500000e-002
  5.5000000e-002
  5.5000000e-002
  5.0000000e-002
  4.7500000e-002
  3.7500000e-002
  4.0000000e-002
  4.0000000e-002
  3.7500000e-002
  3.7500000e-002
  4.0000000e-002
  4.2500000e-002
  4.0000000e-002
  4.2500000e-002
  4.2500000e-002
  3.7500000e-002
  3.5000000e-002
  4.2500000e-002
  4.7500000e-002
  4.7500000e-002
  4.2500000e-002
  3.7500000e-002
  3.2500000e-002
  3.7500000e-002
  3.7500000e-002
  3.7500000e-002
  2.5000000e-002
  3.2500000e-002
  1.9000000e-001
  1.2500000e-001
  4.2500000e-002
  2.2500000e-002
 -2.0000000e-002
 -1.7500000e-002
  3.5000000e-002
  4.2500000e-002
  2.2500000e-002
  1.7500000e-002
  4.2500000e-002
  5.2500000e-002
  3.7500000e-002
  2.5000000e-002
  4.7500000e-002
  6.5000000e-002
  6.7500000e-002
  6.0000000e-002
  7.5000000e-002
  9.0000000e-002
  9.7500000e-002
  9.2500000e-002
  1.0250000e-001
  1.1250000e-001
  1.2500000e-001
  1.3500000e-001
  1.3750000e-001
  1.3000000e-001
  1.1750000e-001
  1.0000000e-001
  8.7500000e-002
  8.0000000e-002
  6.0000000e-002
  4.2500000e-002
  2.5000000e-002
  1.0000000e-002
  1.0000000e-002
  1.0000000e-002
  1.2500000e-002
  1.2500000e-002
  1.2500000e-002
  7.5000000e-003
 -1.5000000e-002
 -1.7500000e-002
 -1.5000000e-002
  5.0000000e-003
  2.5000000e-003
  5.0000000e-003
 -1.5000000e-002
 -2.5000000e-002
 -5.7500000e-002
 -8.5000000e-002
 -1.1750000e-001
 -1.1750000e-001
 -6.5000000e-002
  8.7500000e-002
  3.3750000e-001
  6.2000000e-001
  8.9000000e-001
  1.1875000e+000
  1.4825000e+000
  1.7775000e+000
  1.9950000e+000
  2.1625000e+000
  2.1325000e+000
  1.8225000e+000
  1.2275000e+000
  6.4750000e-001
  2.4250000e-001
  0.0000000e+000
 -9.5000000e-002
 -1.3750000e-001
 -1.9500000e-001
 -2.4500000e-001
 -2.2500000e-001
 -1.9250000e-001
 -2.0750000e-001
 -2.4250000e-001
 -2.4250000e-001
 -2.2250000e-001
 -2.2750000e-001
 -2.5000000e-001
 -2.5000000e-001
 -2.4000000e-001
 -2.4500000e-001
 -2.5500000e-001
 -2.6250000e-001
 -2.5500000e-001
 -2.5750000e-001
 -2.6750000e-001
 -2.7500000e-001
 -2.6750000e-001
 -2.7000000e-001
 -2.7000000e-001
 -2.7250000e-001
 -2.6500000e-001
 -2.6000000e-001
 -2.6250000e-001
 -2.8250000e-001
 -3.0250000e-001
 -3.1250000e-001
 -3.1750000e-001
 -3.1750000e-001
 -3.0750000e-001
 -3.0250000e-001
 -3.1000000e-001
 -3.2000000e-001
 -3.2000000e-001
 -3.1250000e-001
 -3.1750000e-001
 -3.2000000e-001
 -3.2000000e-001
 -3.2000000e-001
 -3.2750000e-001
 -3.2500000e-001
 -3.2500000e-001
 -3.2000000e-001
 -3.1250000e-001
 -3.0250000e-001
 -3.0000000e-001
 -3.0000000e-001
 -3.1250000e-001
 -3.4000000e-001
 -3.6750000e-001
 -3.7500000e-001
 -3.6750000e-001
 -3.5750000e-001
 -3.5000000e-001
 -3.3500000e-001
 -3.1750000e-001
 -2.9500000e-001
 -2.8250000e-001
 -2.7250000e-001
 -2.6500000e-001
 -2.5500000e-001
 -2.4000000e-001
 -2.2000000e-001
 -2.0000000e-001
 -1.7500000e-001
 -1.4250000e-001
 -1.1750000e-001
 -9.0000000e-002
 -7.7500000e-002
 -5.0000000e-002
 -3.7500000e-002
 -1.5000000e-002
  2.0000000e-002
  4.2500000e-002
  5.2500000e-002
  5.7500000e-002
  6.2500000e-002
  6.0000000e-002
  5.7500000e-002
  6.5000000e-002
  7.7500000e-002
  7.7500000e-002
  7.2500000e-002
  5.7500000e-002
  4.7500000e-002
  3.7500000e-002
  3.5000000e-002
  4.2500000e-002
  4.7500000e-002
  4.7500000e-002
  4.7500000e-002
  4.2500000e-002
  4.5000000e-002
  3.5000000e-002
  3.2500000e-002
  3.2500000e-002
  3.5000000e-002
  3.7500000e-002
  4.2500000e-002
  3.7500000e-002
  3.7500000e-002
  4.2500000e-002
  4.2500000e-002
  3.5000000e-002
  3.5000000e-002
  3.7500000e-002
  3.7500000e-002
  3.5000000e-002
  3.2500000e-002
  3.2500000e-002
  3.0000000e-002
  3.2500000e-002
  3.2500000e-002
  3.5000000e-002
  3.5000000e-002
  1.9750000e-001
  8.5000000e-002
  3.0000000e-002
  1.0000000e-002
 -3.0000000e-002
  0.0000000e+000
  4.0000000e-002
  3.7500000e-002
  1.5000000e-002
  1.2500000e-002
  3.7500000e-002
  4.2500000e-002
  3.0000000e-002
  3.5000000e-002
  5.7500000e-002
  5.7500000e-002
  4.2500000e-002
  4.2500000e-002
  6.2500000e-002
  7.7500000e-002
  7.7500000e-002
  8.7500000e-002
  9.5000000e-002
  1.1250000e-001
  1.3000000e-001
  1.3750000e-001
  1.3500000e-001
  1.3000000e-001
  1.1250000e-001
  9.0000000e-002
  7.5000000e-002
  6.5000000e-002
  4.2500000e-002
  1.7500000e-002
  2.5000000e-003
  0.0000000e+000
  5.0000000e-003
  0.0000000e+000
 -2.5000000e-002
 -2.5000000e-002
 -1.7500000e-002
  0.0000000e+000
 -1.2500000e-002
  0.0000000e+000
 -1.5000000e-002
 -1.7500000e-002
 -1.7500000e-002
 -1.5000000e-002
 -1.5000000e-002
 -2.7500000e-002
 -4.0000000e-002
 -8.0000000e-002
 -1.2500000e-001
 -1.3750000e-001
 -1.0250000e-001
  3.5000000e-002
  2.7000000e-001
  5.5750000e-001
  8.4000000e-001
  1.1500000e+000
  1.4700000e+000
  1.7800000e+000
  2.0025000e+000
  2.1600000e+000
  2.1550000e+000
  1.8850000e+000
  1.3025000e+000
  6.8750000e-001
  2.4750000e-001
 -3.0000000e-002
 -1.2250000e-001
 -1.4750000e-001
 -1.9000000e-001
 -2.3500000e-001
 -2.2250000e-001
 -1.8500000e-001
 -2.1000000e-001
 -2.5500000e-001
 -2.6500000e-001
 -2.4000000e-001
 -2.3500000e-001
 -2.4250000e-001
 -2.4750000e-001
 -2.4750000e-001
 -2.4750000e-001
 -2.6500000e-001
 -2.7500000e-001
 -2.6750000e-001
 -2.6250000e-001
 -2.6000000e-001
 -2.6250000e-001
 -2.6250000e-001
 -2.6250000e-001
 -2.6000000e-001
 -2.6250000e-001
 -2.6750000e-001
 -2.7500000e-001
 -2.9000000e-001
 -2.9750000e-001
 -2.9500000e-001
 -2.8750000e-001
 -2.9000000e-001
 -2.8500000e-001
 -2.9250000e-001
 -2.8500000e-001
 -2.9250000e-001
 -3.0250000e-001
 -3.1250000e-001
 -3.0750000e-001
 -3.1250000e-001
 -3.0250000e-001
 -2.9750000e-001
 -3.0750000e-001
 -3.2000000e-001
 -3.2500000e-001
 -3.2000000e-001
 -3.1500000e-001
 -3.2000000e-001
 -3.1750000e-001
 -3.2500000e-001
 -3.3500000e-001
 -3.3000000e-001
 -3.2500000e-001
 -3.2250000e-001
 -3.2000000e-001
 -3.2500000e-001
 -3.3000000e-001
 -3.2500000e-001
 -3.1500000e-001
 -2.9750000e-001
 -2.9000000e-001
 -2.7500000e-001
 -2.6750000e-001
 -2.4750000e-001
 -2.2750000e-001
 -2.0250000e-001
 -1.7250000e-001
 -1.4750000e-001
 -1.3250000e-001
 -1.3000000e-001
 -1.2250000e-001
 -9.0000000e-002
 -5.7500000e-002
 -2.5000000e-002
  5.0000000e-003
  1.0000000e-002
  2.0000000e-002
  4.0000000e-002
  5.7500000e-002
  6.5000000e-002
  7.0000000e-002
  7.5000000e-002
  8.5000000e-002
  8.7500000e-002
  9.0000000e-002
  8.7500000e-002
  8.7500000e-002
  8.0000000e-002
  8.0000000e-002
  7.7500000e-002
  7.2500000e-002
  6.0000000e-002
  5.5000000e-002
  5.2500000e-002
  6.2500000e-002
  7.0000000e-002
  7.0000000e-002
  6.7500000e-002
  5.0000000e-002
  4.2500000e-002
  4.2500000e-002
  4.2500000e-002
  4.0000000e-002
  4.7500000e-002
  5.2500000e-002
  5.7500000e-002
  5.5000000e-002
  5.0000000e-002
  5.5000000e-002
  5.2500000e-002
  4.2500000e-002
  4.5000000e-002
  4.7500000e-002
  4.7500000e-002
  4.7500000e-002
  5.2500000e-002
  5.7500000e-002
  5.7500000e-002
  8.5000000e-002
  2.2250000e-001
  9.0000000e-002
  4.7500000e-002
  1.5000000e-002
 -2.2500000e-002
  2.5000000e-002
  6.7500000e-002
  6.0000000e-002
  3.7500000e-002
  4.2500000e-002
  6.0000000e-002
  5.7500000e-002
  4.5000000e-002
  6.0000000e-002
  8.5000000e-002
  9.0000000e-002
  8.0000000e-002
  8.2500000e-002
  9.5000000e-002
  1.1250000e-001
  1.0750000e-001
  1.1250000e-001
  1.2500000e-001
  1.3000000e-001
  1.3500000e-001
  1.4500000e-001
  1.4000000e-001
  1.3750000e-001
  1.2500000e-001
  1.0750000e-001
  9.0000000e-002
  7.5000000e-002
  6.2500000e-002
  4.7500000e-002
  4.5000000e-002
  3.7500000e-002
  4.0000000e-002
  3.0000000e-002
  1.5000000e-002
  1.2500000e-002
  2.0000000e-002
  2.5000000e-002
  3.7500000e-002
  3.5000000e-002
  1.7500000e-002
  0.0000000e+000
  2.5000000e-003
  7.5000000e-003
  1.2500000e-002
 -2.0000000e-002
 -5.5000000e-002
 -8.5000000e-002
 -1.0250000e-001
 -8.0000000e-002
  1.7500000e-002
  2.0250000e-001
  4.8000000e-001
  7.7500000e-001
  1.0800000e+000
  1.3975000e+000
  1.7075000e+000
  1.9775000e+000
  2.1625000e+000
  2.2575000e+000
  2.0800000e+000
  1.5950000e+000
  9.1500000e-001
  3.9250000e-001
  7.0000000e-002
 -6.5000000e-002
 -9.0000000e-002
 -1.1750000e-001
 -1.8500000e-001
 -2.0500000e-001
 -1.8250000e-001
 -1.6750000e-001
 -2.0750000e-001
 -2.3500000e-001
 -2.2250000e-001
 -2.0750000e-001
 -2.2500000e-001
 -2.4250000e-001
 -2.2500000e-001
 -2.1750000e-001
 -2.2500000e-001
 -2.4500000e-001
 -2.4500000e-001
 -2.3750000e-001
 -2.4000000e-001
 -2.4750000e-001
 -2.4500000e-001
 -2.3750000e-001
 -2.2750000e-001
 -2.3500000e-001
 -2.4000000e-001
 -2.4750000e-001
 -2.5000000e-001
 -2.5250000e-001
 -2.6000000e-001
 -2.7500000e-001
 -2.7500000e-001
 -2.7750000e-001
 -2.7000000e-001
 -2.6500000e-001
 -2.6500000e-001
 -2.7000000e-001
 -2.8000000e-001
 -2.8250000e-001
 -2.8250000e-001
 -2.9000000e-001
 -3.0500000e-001
 -3.0000000e-001
 -2.9750000e-001
 -2.9500000e-001
 -2.9750000e-001
 -2.9750000e-001
 -3.0000000e-001
 -3.0000000e-001
 -3.0250000e-001
 -2.9500000e-001
 -2.9250000e-001
 -3.0000000e-001
 -3.0250000e-001
 -3.1250000e-001
 -3.1750000e-001
 -3.0500000e-001
 -2.9750000e-001
 -3.0500000e-001
 -2.9000000e-001
 -2.7750000e-001
 -2.6250000e-001
 -2.4250000e-001
 -2.3250000e-001
 -2.2250000e-001
 -1.9750000e-001
 -1.7500000e-001
 -1.5250000e-001
 -1.3750000e-001
 -1.1000000e-001
 -9.2500000e-002
 -6.7500000e-002
 -4.5000000e-002
 -2.2500000e-002
  1.2500000e-002
  3.7500000e-002
  5.5000000e-002
  7.5000000e-002
  7.5000000e-002
  8.7500000e-002
  9.5000000e-002
  1.1000000e-001
  1.1250000e-001
  1.0500000e-001
  1.0250000e-001
  1.0000000e-001
  9.2500000e-002
  9.2500000e-002
  9.2500000e-002
  8.2500000e-002
  8.7500000e-002
  9.0000000e-002
  7.7500000e-002
  7.7500000e-002
  8.7500000e-002
  7.7500000e-002
  7.0000000e-002
  6.0000000e-002
  6.2500000e-002
  6.7500000e-002
  7.7500000e-002
  7.7500000e-002
  7.2500000e-002
  6.7500000e-002
  6.0000000e-002
  6.0000000e-002
  7.0000000e-002
  8.0000000e-002
  8.7500000e-002
  8.2500000e-002
  7.5000000e-002
  7.2500000e-002
  6.7500000e-002
  6.5000000e-002
  6.5000000e-002
  6.5000000e-002
  6.0000000e-002
  6.5000000e-002
  6.2500000e-002
  1.4750000e-001
  2.0750000e-001
  9.5000000e-002
  7.5000000e-002
  4.2500000e-002
  1.7500000e-002
  5.0000000e-002
  8.0000000e-002
  6.2500000e-002
  4.5000000e-002
  6.7500000e-002
  9.2500000e-002
  9.0000000e-002
  6.7500000e-002
  7.5000000e-002
  9.2500000e-002
  1.0000000e-001
  1.0000000e-001
  1.0750000e-001
  1.1500000e-001
  1.1750000e-001
  1.1750000e-001
  1.2500000e-001
  1.4500000e-001
  1.6250000e-001
  1.7750000e-001
  1.7750000e-001
  1.7250000e-001
  1.5500000e-001
  1.3500000e-001
  1.1750000e-001
  1.1500000e-001
  1.0250000e-001
  9.2500000e-002
  7.0000000e-002
  4.7500000e-002
  3.7500000e-002
  3.0000000e-002
  3.0000000e-002
  3.7500000e-002
  4.0000000e-002
  3.7500000e-002
  3.7500000e-002
  3.5000000e-002
  3.2500000e-002
  2.7500000e-002
  3.2500000e-002
  3.0000000e-002
  3.5000000e-002
  3.0000000e-002
  2.5000000e-003
 -4.2500000e-002
 -7.0000000e-002
 -8.5000000e-002
 -5.5000000e-002
  5.2500000e-002
  2.6250000e-001
  5.4500000e-001
  8.2500000e-001
  1.1275000e+000
  1.4500000e+000
  1.7600000e+000
  2.0250000e+000
  2.2100000e+000
  2.2575000e+000
  2.0475000e+000
  1.5350000e+000
  8.7750000e-001
  3.7250000e-001
  6.7500000e-002
 -6.7500000e-002
 -9.7500000e-002
 -1.3750000e-001
 -1.9500000e-001
 -2.1250000e-001
 -1.7500000e-001
 -1.6000000e-001
 -1.9250000e-001
 -2.2000000e-001
 -2.0500000e-001
 -1.9250000e-001
 -2.0250000e-001
 -2.1750000e-001
 -2.0000000e-001
 -1.8500000e-001
 -1.9000000e-001
 -2.2000000e-001
 -2.2500000e-001
 -2.1500000e-001
 -2.1500000e-001
 -2.3500000e-001
 -2.4250000e-001
 -2.4500000e-001
 -2.5750000e-001
 -2.6000000e-001
 -2.5000000e-001
 -2.4750000e-001
 -2.5250000e-001
 -2.5250000e-001
 -2.6250000e-001
 -2.6000000e-001
 -2.5750000e-001
 -2.6000000e-001
 -2.5750000e-001
 -2.5750000e-001
 -2.7250000e-001
 -2.8250000e-001
 -2.8750000e-001
 -2.8250000e-001
 -2.8000000e-001
 -2.8000000e-001
 -2.8000000e-001
 -2.7250000e-001
 -2.7750000e-001
 -2.8000000e-001
 -2.8250000e-001
 -2.9000000e-001
 -2.9000000e-001
 -2.8750000e-001
 -2.8750000e-001
 -3.0250000e-001
 -3.0750000e-001
 -3.1500000e-001
 -3.1250000e-001
 -3.0500000e-001
 -2.9500000e-001
 -3.0250000e-001
 -3.1000000e-001
 -3.0500000e-001
 -2.8750000e-001
 -2.7250000e-001
 -2.6250000e-001
 -2.5750000e-001
 -2.3750000e-001
 -2.1750000e-001
 -1.9750000e-001
 -1.7750000e-001
 -1.5750000e-001
 -1.3500000e-001
 -1.1750000e-001
 -1.0250000e-001
 -8.0000000e-002
 -5.5000000e-002
 -2.2500000e-002
  1.7500000e-002
  3.7500000e-002
  5.0000000e-002
  7.0000000e-002
  8.7500000e-002
  9.0000000e-002
  1.0250000e-001
  1.1750000e-001
  1.2750000e-001
  1.3000000e-001
  1.3000000e-001
  1.1500000e-001
  9.2500000e-002
  8.5000000e-002
  8.5000000e-002
  7.7500000e-002
  8.0000000e-002
  7.7500000e-002
  7.7500000e-002
  7.7500000e-002
  8.2500000e-002
  8.7500000e-002
  9.2500000e-002
  8.0000000e-002
  7.5000000e-002
  7.5000000e-002
  7.0000000e-002
  7.0000000e-002
  7.2500000e-002
  7.7500000e-002
  7.7500000e-002
  7.2500000e-002
  6.7500000e-002
  7.0000000e-002
  7.0000000e-002
  7.2500000e-002
  7.7500000e-002
  7.7500000e-002
  6.5000000e-002
  5.7500000e-002
  6.0000000e-002
  6.2500000e-002
  5.7500000e-002
  6.0000000e-002
  7.0000000e-002
  1.9750000e-001
  1.7500000e-001
  8.2500000e-002
  6.2500000e-002
  2.5000000e-002
  2.0000000e-002
  5.7500000e-002
  7.5000000e-002
  4.7500000e-002
  4.2500000e-002
  6.7500000e-002
  8.5000000e-002
  6.7500000e-002
  6.0000000e-002
  8.0000000e-002
  1.0250000e-001
  1.0250000e-001
  9.5000000e-002
  9.7500000e-002
  1.1500000e-001
  1.1750000e-001
  1.1750000e-001
  1.2750000e-001
  1.4750000e-001
  1.6500000e-001
  1.7750000e-001
  1.8250000e-001
  1.7250000e-001
  1.4750000e-001
  1.2250000e-001
  1.1000000e-001
  1.0000000e-001
  9.0000000e-002
  7.0000000e-002
  5.2500000e-002
  4.2500000e-002
  4.5000000e-002
  4.0000000e-002
  3.7500000e-002
  3.7500000e-002
  4.0000000e-002
  3.7500000e-002
  3.7500000e-002
  3.7500000e-002
  4.0000000e-002
  3.7500000e-002
  3.2500000e-002
  2.2500000e-002
  2.7500000e-002
  2.2500000e-002
 -1.5000000e-002
 -5.0000000e-002
 -8.7500000e-002
 -9.7500000e-002
 -6.0000000e-002
  5.7500000e-002
  2.7250000e-001
  5.5500000e-001
  8.2500000e-001
  1.1050000e+000
  1.4025000e+000
  1.7100000e+000
  1.9550000e+000
  2.1475000e+000
  2.1975000e+000
  1.9825000e+000
  1.4600000e+000
  8.6000000e-001
  4.0250000e-001
  1.0000000e-001
 -4.7500000e-002
 -1.0000000e-001
 -1.5500000e-001
 -2.0500000e-001
 -2.0250000e-001
 -1.7500000e-001
 -1.7500000e-001
 -2.0000000e-001
 -2.1000000e-001
 -1.9000000e-001
 -1.8750000e-001
 -2.0500000e-001
 -2.1750000e-001
 -2.0500000e-001
 -1.9500000e-001
 -2.1250000e-001
 -2.2250000e-001
 -2.2250000e-001
 -2.1750000e-001
 -2.2000000e-001
 -2.2500000e-001
 -2.3250000e-001
 -2.3000000e-001
 -2.3750000e-001
 -2.3250000e-001
 -2.2250000e-001
 -2.2500000e-001
 -2.4250000e-001
 -2.5000000e-001
 -2.4750000e-001
 -2.3750000e-001
 -2.3750000e-001
 -2.4250000e-001
 -2.5250000e-001
 -2.5500000e-001
 -2.5500000e-001
 -2.6500000e-001
 -2.6750000e-001
 -2.7250000e-001
 -2.7750000e-001
 -2.7750000e-001
 -2.7000000e-001
 -2.7000000e-001
 -2.8000000e-001
 -2.9250000e-001
 -2.9000000e-001
 -2.8750000e-001
 -2.8000000e-001
 -2.8250000e-001
 -2.8500000e-001
 -2.8750000e-001
 -2.8250000e-001
 -2.8500000e-001
 -2.9250000e-001
 -2.9250000e-001
 -2.9250000e-001
 -2.9250000e-001
 -2.9500000e-001
 -2.9250000e-001
 -2.8000000e-001
 -2.5500000e-001
 -2.4250000e-001
 -2.3000000e-001
 -2.2250000e-001
 -2.0750000e-001
 -1.9250000e-001
 -1.7000000e-001
 -1.5750000e-001
 -1.3750000e-001
 -1.1500000e-001
 -9.0000000e-002
 -7.5000000e-002
 -5.7500000e-002
 -3.2500000e-002
  7.5000000e-003
  3.7500000e-002
  5.2500000e-002
  5.7500000e-002
  7.5000000e-002
  9.0000000e-002
  9.7500000e-002
  1.0250000e-001
  1.1000000e-001
  1.1500000e-001
  1.1500000e-001
  1.1750000e-001
  1.1250000e-001
  1.0500000e-001
  1.0250000e-001
  1.1000000e-001
  1.0250000e-001
  9.7500000e-002
  9.5000000e-002
  9.7500000e-002
  9.7500000e-002
  9.7500000e-002
  9.0000000e-002
  8.7500000e-002
  8.7500000e-002
  9.0000000e-002
  9.2500000e-002
  9.0000000e-002
  9.0000000e-002
  9.7500000e-002
  9.2500000e-002
  8.0000000e-002
  7.7500000e-002
  8.0000000e-002
  7.7500000e-002
  8.0000000e-002
  8.2500000e-002
  8.2500000e-002
  8.2500000e-002
  8.5000000e-002
  8.2500000e-002
  8.2500000e-002
  7.7500000e-002
  7.5000000e-002
  7.7500000e-002
  2.3750000e-001
  1.5750000e-001
  8.5000000e-002
  6.0000000e-002
  2.0000000e-002
  3.2500000e-002
  8.0000000e-002
  9.0000000e-002
  5.5000000e-002
  4.5000000e-002
  6.7500000e-002
  7.7500000e-002
  7.0000000e-002
  7.5000000e-002
  9.7500000e-002
  1.1000000e-001
  9.7500000e-002
  8.7500000e-002
  1.0000000e-001
  1.1750000e-001
  1.2750000e-001
  1.2500000e-001
  1.3500000e-001
  1.4250000e-001
  1.5750000e-001
  1.6500000e-001
  1.6750000e-001
  1.6250000e-001
  1.5000000e-001
  1.3250000e-001
  1.1750000e-001
  1.1000000e-001
  9.7500000e-002
  7.5000000e-002
  5.7500000e-002
  4.5000000e-002
  4.5000000e-002
  3.5000000e-002
  2.7500000e-002
  2.5000000e-002
  2.5000000e-002
  3.0000000e-002
  3.0000000e-002
  3.2500000e-002
  3.0000000e-002
  3.0000000e-002
  2.7500000e-002
  3.0000000e-002
  2.2500000e-002
  7.5000000e-003
 -3.7500000e-002
 -7.0000000e-002
 -9.2500000e-002
 -9.0000000e-002
 -4.2500000e-002
  9.0000000e-002
  3.2250000e-001
  6.0000000e-001
  8.6500000e-001
  1.1575000e+000
  1.4650000e+000
  1.7675000e+000
  1.9950000e+000
  2.1700000e+000
  2.1625000e+000
  1.8900000e+000
  1.3175000e+000
  7.3000000e-001
  3.0750000e-001
  3.2500000e-002
 -8.2500000e-002
 -1.2000000e-001
 -1.6750000e-001
 -2.1750000e-001
 -2.0750000e-001
 -1.8000000e-001
 -1.9000000e-001
 -2.2000000e-001
 -2.2000000e-001
 -2.0250000e-001
 -2.0250000e-001
 -2.2000000e-001
 -2.2500000e-001
 -2.1750000e-001
 -2.2000000e-001
 -2.3750000e-001
 -2.4250000e-001
 -2.3750000e-001
 -2.3250000e-001
 -2.4250000e-001
 -2.4750000e-001
 -2.4000000e-001
 -2.4000000e-001
 -2.4500000e-001
 -2.5750000e-001
 -2.6000000e-001
 -2.6250000e-001
 -2.6250000e-001
 -2.7000000e-001
 -2.7000000e-001
 -2.7000000e-001
 -2.7000000e-001
 -2.7500000e-001
 -2.7500000e-001
 -2.7750000e-001
 -2.7750000e-001
 -2.8000000e-001
 -2.8500000e-001
 -2.9000000e-001
 -2.9500000e-001
 -2.9750000e-001
 -3.0000000e-001
 -3.0250000e-001
 -3.0250000e-001
 -3.0500000e-001
 -3.0500000e-001
 -3.0500000e-001
 -3.0250000e-001
 -3.1000000e-001
 -3.1500000e-001
 -3.1500000e-001
 -3.2000000e-001
 -3.1750000e-001
 -3.2000000e-001
 -3.2000000e-001
 -3.2000000e-001
 -3.1500000e-001
 -3.1250000e-001
 -3.0500000e-001
 -3.0000000e-001
 -2.8750000e-001
 -2.7750000e-001
 -2.6000000e-001
 -2.4750000e-001
 -2.3000000e-001
 -2.1000000e-001
 -1.8750000e-001
 -1.7000000e-001
 -1.5000000e-001
 -1.2500000e-001
 -1.0750000e-001
 -8.0000000e-002
 -5.7500000e-002
 -3.2500000e-002
  0.0000000e+000
  2.0000000e-002
  3.7500000e-002
  5.0000000e-002
  6.2500000e-002
  7.7500000e-002
  8.5000000e-002
  9.5000000e-002
  9.7500000e-002
  9.5000000e-002
  9.0000000e-002
  9.5000000e-002
  9.2500000e-002
  9.2500000e-002
  8.2500000e-002
  7.7500000e-002
  7.7500000e-002
  7.5000000e-002
  7.0000000e-002
  7.0000000e-002
  6.7500000e-002
  6.5000000e-002
  6.5000000e-002
  6.7500000e-002
  6.5000000e-002
  6.5000000e-002
  6.2500000e-002
  6.0000000e-002
  6.0000000e-002
  6.0000000e-002
  6.2500000e-002
  5.7500000e-002
  6.2500000e-002
  6.2500000e-002
  6.2500000e-002
  5.7500000e-002
  6.2500000e-002
  6.2500000e-002
  6.7500000e-002
  6.7500000e-002
  7.0000000e-002
  6.0000000e-002
  6.0000000e-002
  5.5000000e-002
  6.2500000e-002
  2.3000000e-001
  1.1500000e-001
  6.5000000e-002
  4.2500000e-002
  1.5000000e-002
  3.0000000e-002
  7.0000000e-002
  6.2500000e-002
  3.7500000e-002
  4.0000000e-002
  7.0000000e-002
  7.5000000e-002
  6.7500000e-002
  6.7500000e-002
  9.0000000e-002
  9.7500000e-002
  9.0000000e-002
  8.7500000e-002
  1.0000000e-001
  1.1250000e-001
  1.1250000e-001
  1.1750000e-001
  1.3000000e-001
  1.4500000e-001
  1.5750000e-001
  1.6500000e-001
  1.5750000e-001
  1.5750000e-001
  1.4500000e-001
  1.2500000e-001
  1.1250000e-001
  1.0250000e-001
  8.0000000e-002
  6.7500000e-002
  5.2500000e-002
  4.5000000e-002
  4.0000000e-002
  3.7500000e-002
  3.7500000e-002
  3.7500000e-002
  3.5000000e-002
  3.2500000e-002
  3.2500000e-002
  3.5000000e-002
  3.5000000e-002
  3.2500000e-002
  3.2500000e-002
  2.7500000e-002
  2.2500000e-002
  1.0000000e-002
 -2.7500000e-002
 -6.2500000e-002
 -8.0000000e-002
 -7.2500000e-002
 -1.5000000e-002
  1.4750000e-001
  4.0250000e-001
  6.8750000e-001
  9.7750000e-001
  1.2825000e+000
  1.6025000e+000
  1.8975000e+000
  2.1000000e+000
  2.2425000e+000
  2.1625000e+000
  1.7975000e+000
  1.1525000e+000
  5.7250000e-001
  1.8250000e-001
 -2.7500000e-002
 -7.5000000e-002
 -1.0000000e-001
 -1.5500000e-001
 -2.0000000e-001
 -1.7750000e-001
 -1.4750000e-001
 -1.6750000e-001
 -2.0000000e-001
 -1.9750000e-001
 -1.7750000e-001
 -1.8500000e-001
 -2.0750000e-001
 -2.1250000e-001
 -1.9500000e-001
 -1.9750000e-001
 -2.1000000e-001
 -2.1750000e-001
 -2.0750000e-001
 -2.1000000e-001
 -2.2000000e-001
 -2.3000000e-001
 -2.2500000e-001
 -2.2000000e-001
 -2.2250000e-001
 -2.3500000e-001
 -2.3500000e-001
 -2.3250000e-001
 -2.4000000e-001
 -2.4250000e-001
 -2.4500000e-001
 -2.4500000e-001
 -2.5250000e-001
 -2.5500000e-001
 -2.5750000e-001
 -2.5500000e-001
 -2.6000000e-001
 -2.6000000e-001
 -2.6250000e-001
 -2.6250000e-001
 -2.6750000e-001
 -2.7250000e-001
 -2.7500000e-001
 -2.7250000e-001
 -2.7500000e-001
 -2.7500000e-001
 -2.7750000e-001
 -2.8250000e-001
 -2.8500000e-001
 -2.8750000e-001
 -2.9250000e-001
 -2.9500000e-001
 -2.9500000e-001
 -2.9750000e-001
 -2.9750000e-001
 -2.9500000e-001
 -2.8750000e-001
 -2.9250000e-001
 -2.8750000e-001
 -2.8250000e-001
 -2.7250000e-001
 -2.6000000e-001
 -2.4000000e-001
 -2.3000000e-001
 -2.1250000e-001
 -1.9750000e-001
 -1.7250000e-001
 -1.6500000e-001
 -1.4250000e-001
 -1.2000000e-001
 -9.5000000e-002
 -7.5000000e-002
 -4.2500000e-002
 -2.2500000e-002
  1.2500000e-002
  3.0000000e-002
  5.2500000e-002
  7.0000000e-002
  8.2500000e-002
  9.2500000e-002
  1.0250000e-001
  1.1500000e-001
  1.1500000e-001
  1.1750000e-001
  1.1750000e-001
  1.1500000e-001
  1.1500000e-001
  1.1250000e-001
  1.0750000e-001
  1.0000000e-001
  9.5000000e-002
  9.5000000e-002
  9.2500000e-002
  8.5000000e-002
  8.0000000e-002
  7.7500000e-002
  7.7500000e-002
  7.7500000e-002
  7.5000000e-002
  7.7500000e-002
  7.0000000e-002
  7.5000000e-002
  7.7500000e-002
  7.2500000e-002
  7.0000000e-002
  7.5000000e-002
  7.7500000e-002
  7.5000000e-002
  7.5000000e-002
  7.5000000e-002
  7.2500000e-002
  7.0000000e-002
  7.2500000e-002
  7.0000000e-002
  7.2500000e-002
  7.2500000e-002
  7.5000000e-002
  7.0000000e-002
  7.2500000e-002
  1.1250000e-001
  2.2500000e-001
  9.5000000e-002
  7.5000000e-002
  4.5000000e-002
  1.7500000e-002
  4.2500000e-002
  7.5000000e-002
  6.5000000e-002
  4.7500000e-002
  6.2500000e-002
  8.2500000e-002
  7.7500000e-002
  6.5000000e-002
  7.7500000e-002
  9.7500000e-002
  1.0500000e-001
  9.2500000e-002
  9.7500000e-002
  1.1000000e-001
  1.1750000e-001
  1.1500000e-001
  1.2500000e-001
  1.4000000e-001
  1.5500000e-001
  1.6500000e-001
  1.6750000e-001
  1.6250000e-001
  1.5500000e-001
  1.4000000e-001
  1.2000000e-001
  1.0500000e-001
  9.2500000e-002
  7.7500000e-002
  6.0000000e-002
  4.7500000e-002
  4.2500000e-002
  4.0000000e-002
  3.5000000e-002
  3.5000000e-002
  3.5000000e-002
  3.2500000e-002
  2.5000000e-002
  2.7500000e-002
  2.2500000e-002
  3.0000000e-002
  2.2500000e-002
  2.7500000e-002
  2.2500000e-002
  1.7500000e-002
 -1.5000000e-002
 -4.2500000e-002
 -7.5000000e-002
 -8.7500000e-002
 -6.2500000e-002
  4.0000000e-002
  2.4000000e-001
  5.2750000e-001
  8.2000000e-001
  1.1200000e+000
  1.4475000e+000
  1.7700000e+000
  2.0275000e+000
  2.2100000e+000
  2.2725000e+000
  2.0600000e+000
  1.5425000e+000
  8.6750000e-001
  3.6000000e-001
  4.5000000e-002
 -7.7500000e-002
 -1.0000000e-001
 -1.3000000e-001
 -1.8750000e-001
 -2.0250000e-001
 -1.7750000e-001
 -1.6000000e-001
 -1.9500000e-001
 -2.1750000e-001
 -2.0000000e-001
 -1.9000000e-001
 -2.1000000e-001
 -2.2750000e-001
 -2.2000000e-001
 -2.1000000e-001
 -2.2000000e-001
 -2.3000000e-001
 -2.2750000e-001
 -2.2250000e-001
 -2.2750000e-001
 -2.4000000e-001
 -2.4000000e-001
 -2.3750000e-001
 -2.3750000e-001
 -2.4750000e-001
 -2.4750000e-001
 -2.5000000e-001
 -2.5500000e-001
 -2.6250000e-001
 -2.6250000e-001
 -2.6250000e-001
 -2.6250000e-001
 -2.6750000e-001
 -2.7000000e-001
 -2.7000000e-001
 -2.7000000e-001
 -2.7750000e-001
 -2.8000000e-001
 -2.7750000e-001
 -2.8250000e-001
 -2.9000000e-001
 -2.9500000e-001
 -2.9250000e-001
 -2.9000000e-001
 -2.9000000e-001
 -2.9750000e-001
 -3.0000000e-001
 -3.0500000e-001
 -3.0500000e-001
 -3.1000000e-001
 -3.1250000e-001
 -3.1250000e-001
 -3.1500000e-001
 -3.1500000e-001
 -3.1000000e-001
 -3.1000000e-001
 -3.0500000e-001
 -3.0250000e-001
 -2.9500000e-001
 -2.8750000e-001
 -2.8250000e-001
 -2.7500000e-001
 -2.5750000e-001
 -2.4250000e-001
 -2.2500000e-001
 -2.1250000e-001
 -1.9000000e-001
 -1.7000000e-001
 -1.5250000e-001
 -1.2250000e-001
 -1.0250000e-001
 -7.5000000e-002
 -5.2500000e-002
 -2.7500000e-002
  2.5000000e-003
  2.2500000e-002
  4.2500000e-002
  6.0000000e-002
  7.0000000e-002
  8.2500000e-002
  9.2500000e-002
  9.7500000e-002
  9.5000000e-002
  9.7500000e-002
  1.0000000e-001
  1.0000000e-001
  9.2500000e-002
  9.0000000e-002
  8.5000000e-002
  8.2500000e-002
  8.0000000e-002
  7.7500000e-002
  7.5000000e-002
  7.0000000e-002
  7.0000000e-002
  6.7500000e-002
  6.5000000e-002
  6.0000000e-002
  5.7500000e-002
  5.7500000e-002
  6.2500000e-002
  6.5000000e-002
  6.7500000e-002
  6.7500000e-002
  6.2500000e-002
  5.7500000e-002
  6.0000000e-002
  5.7500000e-002
  6.0000000e-002
  6.2500000e-002
  6.2500000e-002
  6.0000000e-002
  6.2500000e-002
  6.5000000e-002
  6.0000000e-002
  5.7500000e-002
  6.0000000e-002
  6.0000000e-002
  5.7500000e-002
  1.6750000e-001
  1.9500000e-001
  8.2500000e-002
  6.0000000e-002
  2.7500000e-002
  7.5000000e-003
  4.2500000e-002
  7.0000000e-002
  4.7500000e-002
  3.0000000e-002
  5.7500000e-002
  7.7500000e-002
  6.7500000e-002
  5.5000000e-002
  7.7500000e-002
  9.7500000e-002
  1.0000000e-001
  8.5000000e-002
  9.0000000e-002
  1.0750000e-001
  1.1500000e-001
  1.1750000e-001
  1.2250000e-001
  1.3250000e-001
  1.4750000e-001
  1.6000000e-001
  1.5750000e-001
  1.5250000e-001
  1.4750000e-001
  1.3250000e-001
  1.0750000e-001
  1.0000000e-001
  8.5000000e-002
  6.7500000e-002
  5.5000000e-002
  4.7500000e-002
  4.5000000e-002
  3.7500000e-002
  2.7500000e-002
  2.7500000e-002
  2.7500000e-002
  2.5000000e-002
  2.0000000e-002
  2.7500000e-002
  3.2500000e-002
  2.7500000e-002
  2.5000000e-002
  2.7500000e-002
  2.7500000e-002
  2.0000000e-002
  0.0000000e+000
 -4.7500000e-002
 -8.0000000e-002
 -9.0000000e-002
 -5.2500000e-002
  5.7500000e-002
  2.7500000e-001
  5.6250000e-001
  8.4500000e-001
  1.1375000e+000
  1.4600000e+000
  1.7775000e+000
  2.0400000e+000
  2.2325000e+000
  2.2750000e+000
  2.0400000e+000
  1.4950000e+000
  8.4000000e-001
  3.5750000e-001
  6.2500000e-002
 -6.2500000e-002
 -9.5000000e-002
 -1.4000000e-001
 -1.9500000e-001
 -2.0500000e-001
 -1.6750000e-001
 -1.6750000e-001
 -2.0250000e-001
 -2.2250000e-001
 -2.0000000e-001
 -1.9250000e-001
 -2.1500000e-001
 -2.3250000e-001
 -2.1750000e-001
 -2.0750000e-001
 -2.1750000e-001
 -2.2750000e-001
 -2.2250000e-001
 -2.2250000e-001
 -2.2750000e-001
 -2.4000000e-001
 -2.3750000e-001
 -2.3750000e-001
 -2.3250000e-001
 -2.4000000e-001
 -2.5000000e-001
 -2.4250000e-001
 -2.3750000e-001
 -2.4000000e-001
 -2.4250000e-001
 -2.6000000e-001
 -2.7000000e-001
 -2.7250000e-001
 -2.7250000e-001
 -2.6500000e-001
 -2.7000000e-001
 -2.7000000e-001
 -2.7500000e-001
 -2.7000000e-001
 -2.7000000e-001
 -2.7500000e-001
 -2.8750000e-001
 -2.8500000e-001
 -2.8750000e-001
 -2.8500000e-001
 -2.9000000e-001
 -2.9250000e-001
 -2.9750000e-001
 -3.0250000e-001
 -3.0500000e-001
 -3.0500000e-001
 -3.0750000e-001
 -3.0500000e-001
 -3.0750000e-001
 -3.0750000e-001
 -3.0250000e-001
 -2.9500000e-001
 -2.9000000e-001
 -2.8750000e-001
 -2.8500000e-001
 -2.7750000e-001
 -2.6000000e-001
 -2.4500000e-001
 -2.2500000e-001
 -2.1000000e-001
 -1.8750000e-001
 -1.6500000e-001
 -1.5250000e-001
 -1.4250000e-001
 -1.1750000e-001
 -8.7500000e-002
 -6.0000000e-002
 -4.0000000e-002
 -1.7500000e-002
  1.0000000e-002
  2.7500000e-002
  5.5000000e-002
  7.0000000e-002
  8.5000000e-002
  9.7500000e-002
  1.1500000e-001
  1.1500000e-001
  1.1500000e-001
  1.1500000e-001
  1.1500000e-001
  1.1500000e-001
  1.2000000e-001
  1.1750000e-001
  1.1500000e-001
  1.1250000e-001
  1.1000000e-001
  1.0750000e-001
  1.0250000e-001
  9.0000000e-002
  9.0000000e-002
  9.2500000e-002
  9.5000000e-002
  9.0000000e-002
  9.2500000e-002
  9.0000000e-002
  8.7500000e-002
  9.0000000e-002
  9.2500000e-002
  8.7500000e-002
  8.2500000e-002
  8.2500000e-002
  8.7500000e-002
  9.0000000e-002
  9.0000000e-002
  8.7500000e-002
  8.2500000e-002
  8.7500000e-002
  8.7500000e-002
  8.5000000e-002
  7.7500000e-002
  8.0000000e-002
  8.5000000e-002
  9.5000000e-002
  9.0000000e-002
  2.3500000e-001
  1.7750000e-001
  9.7500000e-002
  8.0000000e-002
  4.7500000e-002
  4.0000000e-002
  6.7500000e-002
  8.7500000e-002
  6.7500000e-002
  6.0000000e-002
  8.5000000e-002
  1.0500000e-001
  9.2500000e-002
  9.0000000e-002
  1.1250000e-001
  1.2500000e-001
  1.2000000e-001
  1.1750000e-001
  1.2750000e-001
  1.4000000e-001
  1.3750000e-001
  1.3500000e-001
  1.4250000e-001
  1.6250000e-001
  1.7750000e-001
  1.9000000e-001
  1.9000000e-001
  1.8250000e-001
  1.7000000e-001
  1.6000000e-001
  1.5000000e-001
  1.3500000e-001
  1.1250000e-001
  8.7500000e-002
  7.7500000e-002
  7.2500000e-002
  7.2500000e-002
  6.5000000e-002
  5.7500000e-002
  5.7500000e-002
  6.2500000e-002
  6.0000000e-002
  5.7500000e-002
  5.2500000e-002
  5.5000000e-002
  5.2500000e-002
  5.5000000e-002
  5.5000000e-002
  5.7500000e-002
  4.2500000e-002
  1.7500000e-002
 -2.2500000e-002
 -5.5000000e-002
 -6.2500000e-002
 -2.2500000e-002
  1.1750000e-001
  3.4750000e-001
  6.2750000e-001
  8.9000000e-001
  1.1725000e+000
  1.4750000e+000
  1.7775000e+000
  2.0200000e+000
  2.2125000e+000
  2.2200000e+000
  1.9550000e+000
  1.3775000e+000
  7.8750000e-001
  3.5250000e-001
  7.5000000e-002
 -4.0000000e-002
 -6.7500000e-002
 -1.1750000e-001
 -1.7500000e-001
 -1.6500000e-001
 -1.3750000e-001
 -1.5000000e-001
 -1.8000000e-001
 -1.8250000e-001
 -1.6000000e-001
 -1.5750000e-001
 -1.7250000e-001
 -1.8500000e-001
 -1.8000000e-001
 -1.7250000e-001
 -1.8500000e-001
 -1.9500000e-001
 -1.9000000e-001
 -1.8750000e-001
 -2.0250000e-001
 -2.1500000e-001
 -2.0250000e-001
 -1.9500000e-001
 -2.0250000e-001
 -2.0000000e-001
 -2.0000000e-001
 -2.1000000e-001
 -2.2500000e-001
 -2.3250000e-001
 -2.2750000e-001
 -2.2250000e-001
 -2.1500000e-001
 -2.2000000e-001
 -2.3750000e-001
 -2.4000000e-001
 -2.3250000e-001
 -2.3750000e-001
 -2.4000000e-001
 -2.4000000e-001
 -2.4250000e-001
 -2.4250000e-001
 -2.4250000e-001
 -2.4750000e-001
 -2.5250000e-001
 -2.6000000e-001
 -2.5250000e-001
 -2.5250000e-001
 -2.5000000e-001
 -2.6000000e-001
 -2.6500000e-001
 -2.7000000e-001
 -2.7750000e-001
 -2.8500000e-001
 -2.8250000e-001
 -2.8000000e-001
 -2.7750000e-001
 -2.7000000e-001
 -2.6250000e-001
 -2.5500000e-001
 -2.4750000e-001
 -2.4250000e-001
 -2.3250000e-001
 -2.2000000e-001
 -2.0750000e-001
 -1.8750000e-001
 -1.7250000e-001
 -1.5000000e-001
 -1.3750000e-001
 -1.2250000e-001
 -1.0500000e-001
 -8.0000000e-002
 -5.2500000e-002
 -3.0000000e-002
  0.0000000e+000
  2.7500000e-002
  4.7500000e-002
  6.7500000e-002
  7.7500000e-002
  8.7500000e-002
  9.7500000e-002
  1.1250000e-001
  1.2500000e-001
  1.3250000e-001
  1.2750000e-001
  1.2750000e-001
  1.2750000e-001
  1.2750000e-001
  1.2750000e-001
  1.2750000e-001
  1.2500000e-001
  1.2000000e-001
  1.1500000e-001
  1.1000000e-001
  1.1250000e-001
  1.1000000e-001
  1.1250000e-001
  1.1000000e-001
  1.1500000e-001
  1.1000000e-001
  1.0750000e-001
  1.0250000e-001
  1.0250000e-001
  1.0750000e-001
  1.0500000e-001
  1.0000000e-001
  9.7500000e-002
  9.7500000e-002
  1.0250000e-001
  1.0250000e-001
  1.0250000e-001
  1.0000000e-001
  9.5000000e-002
  9.2500000e-002
  9.2500000e-002
  9.2500000e-002
  9.5000000e-002
  9.7500000e-002
  9.7500000e-002
  9.7500000e-002
  2.5500000e-001
  1.5750000e-001
  1.0250000e-001
  8.2500000e-002
  4.0000000e-002
  5.0000000e-002
  8.7500000e-002
  9.5000000e-002
  7.7500000e-002
  8.2500000e-002
  1.0250000e-001
  1.0500000e-001
  8.7500000e-002
  9.0000000e-002
  1.1000000e-001
  1.2750000e-001
  1.2500000e-001
  1.1750000e-001
  1.3000000e-001
  1.4250000e-001
  1.4000000e-001
  1.4250000e-001
  1.6000000e-001
  1.7000000e-001
  1.9000000e-001
  1.9750000e-001
  1.9500000e-001
  1.8250000e-001
  1.7250000e-001
  1.5250000e-001
  1.3750000e-001
  1.2500000e-001
  1.1250000e-001
  9.7500000e-002
  8.0000000e-002
  6.7500000e-002
  6.7500000e-002
  6.2500000e-002
  5.7500000e-002
  5.0000000e-002
  5.7500000e-002
  5.7500000e-002
  5.2500000e-002
  5.2500000e-002
  5.2500000e-002
  5.2500000e-002
  5.5000000e-002
  6.0000000e-002
  5.5000000e-002
  3.5000000e-002
  2.5000000e-003
 -4.0000000e-002
 -6.7500000e-002
 -6.5000000e-002
 -1.7500000e-002
  1.3750000e-001
  3.8250000e-001
  6.6000000e-001
  9.3000000e-001
  1.2275000e+000
  1.5250000e+000
  1.8350000e+000
  2.0600000e+000
  2.2275000e+000
  2.1800000e+000
  1.8650000e+000
  1.2650000e+000
  6.8500000e-001
  2.8000000e-001
  3.7500000e-002
 -5.5000000e-002
 -9.0000000e-002
 -1.4000000e-001
 -1.8500000e-001
 -1.7000000e-001
 -1.4500000e-001
 -1.6000000e-001
 -1.9000000e-001
 -1.8750000e-001
 -1.7500000e-001
 -1.8250000e-001
 -2.0500000e-001
 -2.0750000e-001
 -1.9750000e-001
 -1.9250000e-001
 -2.0750000e-001
 -2.1000000e-001
 -2.0250000e-001
 -2.0000000e-001
 -2.1250000e-001
 -2.2000000e-001
 -2.1500000e-001
 -2.1750000e-001
 -2.2500000e-001
 -2.3250000e-001
 -2.2750000e-001
 -2.3000000e-001
 -2.3000000e-001
 -2.3750000e-001
 -2.4250000e-001
 -2.4250000e-001
 -2.4500000e-001
 -2.5000000e-001
 -2.4750000e-001
 -2.4750000e-001
 -2.5250000e-001
 -2.6250000e-001
 -2.6250000e-001
 -2.6250000e-001
 -2.6250000e-001
 -2.6500000e-001
 -2.6750000e-001
 -2.7000000e-001
 -2.7000000e-001
 -2.7500000e-001
 -2.7750000e-001
 -2.8250000e-001
 -2.8500000e-001
 -2.9000000e-001
 -2.9250000e-001
 -2.9500000e-001
 -2.9750000e-001
 -2.9750000e-001
 -3.0250000e-001
 -2.9750000e-001
 -2.9000000e-001
 -2.8500000e-001
 -2.8750000e-001
 -2.8000000e-001
 -2.7250000e-001
 -2.6000000e-001
 -2.5000000e-001
 -2.3000000e-001
 -2.1750000e-001
 -2.0000000e-001
 -1.8500000e-001
 -1.6250000e-001
 -1.4250000e-001
 -1.2250000e-001
 -1.0250000e-001
 -7.5000000e-002
 -5.0000000e-002
 -2.7500000e-002
  7.5000000e-003
  3.0000000e-002
  5.0000000e-002
  6.5000000e-002
  8.5000000e-002
  9.5000000e-002
  1.0000000e-001
  1.0750000e-001
  1.1500000e-001
  1.1500000e-001
  1.2000000e-001
  1.2000000e-001
  1.2000000e-001
  1.1000000e-001
  1.0750000e-001
  1.0500000e-001
  1.0250000e-001
  9.7500000e-002
  9.5000000e-002
  9.5000000e-002
  9.0000000e-002
  9.0000000e-002
  8.7500000e-002
  8.7500000e-002
  8.7500000e-002
  8.7500000e-002
  8.7500000e-002
  8.7500000e-002
  8.5000000e-002
  8.2500000e-002
  8.5000000e-002
  8.5000000e-002
  8.5000000e-002
  9.0000000e-002
  8.2500000e-002
  8.5000000e-002
  8.5000000e-002
  8.5000000e-002
  8.2500000e-002
  8.5000000e-002
  8.0000000e-002
  8.5000000e-002
  8.2500000e-002
  8.2500000e-002
  8.0000000e-002
  9.5000000e-002
  2.4000000e-001
  1.1750000e-001
  8.2500000e-002
  6.0000000e-002
  3.0000000e-002
  4.7500000e-002
  8.7500000e-002
  8.0000000e-002
  6.0000000e-002
  6.7500000e-002
  9.0000000e-002
  9.0000000e-002
  7.5000000e-002
  8.2500000e-002
  1.0500000e-001
  1.1000000e-001
  1.0750000e-001
  1.0500000e-001
  1.2000000e-001
  1.3250000e-001
  1.3500000e-001
  1.3500000e-001
  1.4750000e-001
  1.6000000e-001
  1.7250000e-001
  1.7750000e-001
  1.7750000e-001
  1.7250000e-001
  1.5500000e-001
  1.3750000e-001
  1.2250000e-001
  1.1250000e-001
  9.5000000e-002
  8.2500000e-002
  6.5000000e-002
  5.7500000e-002
  5.0000000e-002
  4.7500000e-002
  4.2500000e-002
  5.0000000e-002
  4.2500000e-002
  4.2500000e-002
  3.7500000e-002
  4.2500000e-002
  4.5000000e-002
  4.2500000e-002
  3.7500000e-002
  3.7500000e-002
  3.5000000e-002
  1.5000000e-002
 -3.0000000e-002
 -6.0000000e-002
 -7.7500000e-002
 -6.2500000e-002
  3.0000000e-002
  2.1000000e-001
  4.8250000e-001
  7.6500000e-001
  1.0600000e+000
  1.3750000e+000
  1.7025000e+000
  1.9750000e+000
  2.1675000e+000
  2.2700000e+000
  2.1175000e+000
  1.6775000e+000
  1.0150000e+000
  4.7500000e-001
  1.3000000e-001
 -3.5000000e-002
 -6.5000000e-002
 -1.0000000e-001
 -1.5500000e-001
 -1.8250000e-001
 -1.5500000e-001
 -1.4250000e-001
 -1.6750000e-001
 -1.9500000e-001
 -1.8500000e-001
 -1.6750000e-001
 -1.8000000e-001
 -1.9750000e-001
 -2.0000000e-001
 -1.8750000e-001
 -1.9500000e-001
 -2.0750000e-001
 -2.0750000e-001
 -1.9750000e-001
 -2.0250000e-001
 -2.1000000e-001
 -2.1750000e-001
 -2.1250000e-001
 -2.1250000e-001
 -2.1750000e-001
 -2.2250000e-001
 -2.2000000e-001
 -2.2250000e-001
 -2.3000000e-001
 -2.3000000e-001
 -2.3250000e-001
 -2.3250000e-001
 -2.3750000e-001
 -2.4000000e-001
 -2.4500000e-001
 -2.4500000e-001
 -2.4750000e-001
 -2.5000000e-001
 -2.5000000e-001
 -2.4750000e-001
 -2.5500000e-001
 -2.6000000e-001
 -2.6250000e-001
 -2.6000000e-001
 -2.6500000e-001
 -2.6500000e-001
 -2.7000000e-001
 -2.7000000e-001
 -2.7500000e-001
 -2.7750000e-001
 -2.8000000e-001
 -2.8250000e-001
 -2.8250000e-001
 -2.8000000e-001
 -2.8250000e-001
 -2.8250000e-001
 -2.8500000e-001
 -2.7750000e-001
 -2.6750000e-001
 -2.6250000e-001
 -2.5000000e-001
 -2.4000000e-001
 -2.2750000e-001
 -2.1500000e-001
 -1.9750000e-001
 -1.8250000e-001
 -1.6500000e-001
 -1.4750000e-001
 -1.2250000e-001
 -1.0500000e-001
 -8.0000000e-002
 -5.2500000e-002
 -3.0000000e-002
  5.0000000e-003
  3.0000000e-002
  4.7500000e-002
  7.2500000e-002
  8.5000000e-002
  1.0000000e-001
  1.1000000e-001
  1.1750000e-001
  1.2000000e-001
  1.2750000e-001
  1.3000000e-001
  1.2500000e-001
  1.2500000e-001
  1.2500000e-001
  1.2250000e-001
  1.1750000e-001
  1.1250000e-001
  1.0500000e-001
  1.0750000e-001
  1.0250000e-001
  1.0250000e-001
  9.7500000e-002
  9.5000000e-002
  9.0000000e-002
  9.2500000e-002
  8.7500000e-002
  8.7500000e-002
  8.7500000e-002
  8.7500000e-002
  8.5000000e-002
  9.0000000e-002
  8.7500000e-002
  8.7500000e-002
  8.5000000e-002
  8.7500000e-002
  8.7500000e-002
  8.7500000e-002
  9.0000000e-002
  9.0000000e-002
  8.7500000e-002
  8.7500000e-002
  8.7500000e-002
  8.5000000e-002
  9.2500000e-002
  9.0000000e-002
  8.7500000e-002
  1.5000000e-001
  2.3750000e-001
  1.1000000e-001
  8.5000000e-002
  5.5000000e-002
  3.2500000e-002
  6.5000000e-002
  9.5000000e-002
  7.7500000e-002
  5.5000000e-002
  7.2500000e-002
  9.7500000e-002
  9.0000000e-002
  8.0000000e-002
  9.5000000e-002
  1.1750000e-001
  1.1750000e-001
  1.1000000e-001
  1.1500000e-001
  1.2750000e-001
  1.3750000e-001
  1.3000000e-001
  1.4000000e-001
  1.5250000e-001
  1.7000000e-001
  1.8000000e-001
  1.8500000e-001
  1.7750000e-001
  1.6750000e-001
  1.5250000e-001
  1.3250000e-001
  1.2000000e-001
  1.0500000e-001
  8.5000000e-002
  7.5000000e-002
  6.2500000e-002
  5.5000000e-002
  4.5000000e-002
  4.2500000e-002
  4.2500000e-002
  4.5000000e-002
  4.2500000e-002
  3.7500000e-002
  3.5000000e-002
  3.5000000e-002
  4.0000000e-002
  3.7500000e-002
  3.7500000e-002
  3.5000000e-002
  2.7500000e-002
  0.0000000e+000
 -4.2500000e-002
 -6.7500000e-002
 -7.5000000e-002
 -3.7500000e-002
  8.7500000e-002
  3.0250000e-001
  5.9000000e-001
  8.7500000e-001
  1.1800000e+000
  1.5050000e+000
  1.8250000e+000
  2.0700000e+000
  2.2575000e+000
  2.2800000e+000
  2.0275000e+000
  1.4650000e+000
  8.1000000e-001
  3.3250000e-001
  5.2500000e-002
 -5.7500000e-002
 -8.5000000e-002
 -1.2750000e-001
 -1.8250000e-001
 -1.9000000e-001
 -1.6000000e-001
 -1.5500000e-001
 -1.9250000e-001
 -2.0750000e-001
 -1.9250000e-001
 -1.8500000e-001
 -2.1000000e-001
 -2.2250000e-001
 -2.1000000e-001
 -2.0000000e-001
 -2.1000000e-001
 -2.2250000e-001
 -2.2250000e-001
 -2.1250000e-001
 -2.1500000e-001
 -2.2750000e-001
 -2.2750000e-001
 -2.2750000e-001
 -2.2750000e-001
 -2.4000000e-001
 -2.4000000e-001
 -2.4250000e-001
 -2.4750000e-001
 -2.5250000e-001
 -2.5250000e-001
 -2.4750000e-001
 -2.4750000e-001
 -2.5750000e-001
 -2.6250000e-001
 -2.6500000e-001
 -2.6500000e-001
 -2.6500000e-001
 -2.7000000e-001
 -2.7750000e-001
 -2.7250000e-001
 -2.7250000e-001
 -2.7500000e-001
 -2.7750000e-001
 -2.8250000e-001
 -2.9000000e-001
 -2.9250000e-001
 -2.8750000e-001
 -2.9000000e-001
 -2.9500000e-001
 -3.0500000e-001
 -3.0250000e-001
 -3.0750000e-001
 -3.0250000e-001
 -3.0250000e-001
 -3.0250000e-001
 -3.0500000e-001
 -3.0000000e-001
 -2.9500000e-001
 -2.8750000e-001
 -2.7750000e-001
 -2.6500000e-001
 -2.5500000e-001
 -2.4250000e-001
 -2.3500000e-001
 -2.1500000e-001
 -1.9250000e-001
 -1.6750000e-001
 -1.5250000e-001
 -1.3750000e-001
 -1.1250000e-001
 -9.2500000e-002
 -7.2500000e-002
 -4.0000000e-002
 -1.5000000e-002
  1.7500000e-002
  3.7500000e-002
  5.2500000e-002
  6.7500000e-002
  7.7500000e-002
  8.7500000e-002
  9.5000000e-002
  1.0250000e-001
  1.0750000e-001
  1.1000000e-001
  1.1250000e-001
  1.1000000e-001
  1.0500000e-001
  1.0500000e-001
  1.0000000e-001
  9.7500000e-002
  9.7500000e-002
  8.7500000e-002
  8.2500000e-002
  8.0000000e-002
  7.7500000e-002
  7.2500000e-002
  7.2500000e-002
  7.5000000e-002
  7.7500000e-002
  7.7500000e-002
  7.7500000e-002
  7.7500000e-002
  7.5000000e-002
  7.2500000e-002
  7.5000000e-002
  7.2500000e-002
  7.7500000e-002
  7.7500000e-002
  7.5000000e-002
  7.0000000e-002
  7.2500000e-002
  7.0000000e-002
  7.5000000e-002
  7.0000000e-002
  6.5000000e-002
  6.0000000e-002
  6.2500000e-002
  6.2500000e-002
  6.7500000e-002
  1.9250000e-001
  1.8000000e-001
  9.0000000e-002
  7.0000000e-002
  3.7500000e-002
  2.2500000e-002
  5.2500000e-002
  7.5000000e-002
  5.5000000e-002
  4.0000000e-002
  6.0000000e-002
  7.5000000e-002
  6.7500000e-002
  6.2500000e-002
  8.7500000e-002
  9.7500000e-002
  9.5000000e-002
  8.7500000e-002
  1.0000000e-001
  1.1250000e-001
  1.1750000e-001
  1.1750000e-001
  1.2250000e-001
  1.3250000e-001
  1.5250000e-001
  1.6500000e-001
  1.6000000e-001
  1.6500000e-001
  1.5500000e-001
  1.3250000e-001
  1.1750000e-001
  1.1000000e-001
  8.5000000e-002
  6.7500000e-002
  4.7500000e-002
  4.2500000e-002
  3.7500000e-002
  3.7500000e-002
  2.5000000e-002
  2.7500000e-002
  3.0000000e-002
  3.0000000e-002
  2.5000000e-002
  2.5000000e-002
  2.2500000e-002
  2.0000000e-002
  3.0000000e-002
  3.0000000e-002
  2.7500000e-002
  1.7500000e-002
 -2.2500000e-002
 -5.2500000e-002
 -8.2500000e-002
 -9.7500000e-002
 -6.5000000e-002
  5.0000000e-002
  2.7000000e-001
  5.6000000e-001
  8.3750000e-001
  1.1275000e+000
  1.4375000e+000
  1.7500000e+000
  2.0100000e+000
  2.2100000e+000
  2.2625000e+000
  2.0300000e+000
  1.4950000e+000
  8.7000000e-001
  4.0250000e-001
  8.7500000e-002
 -5.5000000e-002
 -9.7500000e-002
 -1.5000000e-001
 -2.1250000e-001
 -2.1250000e-001
 -1.7500000e-001
 -1.7250000e-001
 -2.0750000e-001
 -2.2000000e-001
 -1.9750000e-001
 -1.9500000e-001
 -2.1750000e-001
 -2.3000000e-001
 -2.2000000e-001
 -2.2000000e-001
 -2.3750000e-001
 -2.4750000e-001
 -2.3500000e-001
 -2.2250000e-001
 -2.2750000e-001
 -2.4000000e-001
 -2.4000000e-001
 -2.4500000e-001
 -2.5000000e-001
 -2.5250000e-001
 -2.5250000e-001
 -2.5000000e-001
 -2.5250000e-001
 -2.6250000e-001
 -2.6500000e-001
 -2.7000000e-001
 -2.7000000e-001
 -2.6500000e-001
 -2.6750000e-001
 -2.7750000e-001
 -2.8500000e-001
 -2.8250000e-001
 -2.7750000e-001
 -2.7250000e-001
 -2.8250000e-001
 -2.8750000e-001
 -2.9000000e-001
 -2.8500000e-001
 -2.9000000e-001
 -3.0000000e-001
 -3.0750000e-001
 -3.0250000e-001
 -3.0000000e-001
 -3.0250000e-001
 -3.1250000e-001
 -3.1500000e-001
 -3.1500000e-001
 -3.1250000e-001
 -3.0750000e-001
 -3.0500000e-001
 -3.0500000e-001
 -3.1250000e-001
 -3.0750000e-001
 -2.9750000e-001
 -2.9000000e-001
 -2.7250000e-001
 -2.6000000e-001
 -2.5750000e-001
 -2.5000000e-001
 -2.3000000e-001
 -2.0500000e-001
 -1.9000000e-001
 -1.7000000e-001
 -1.5500000e-001
 -1.3000000e-001
 -1.0500000e-001
 -8.0000000e-002
 -5.7500000e-002
 -3.2500000e-002
  0.0000000e+000
  2.0000000e-002
  4.0000000e-002
  5.2500000e-002
  5.5000000e-002
  6.5000000e-002
  8.2500000e-002
  8.7500000e-002
  9.7500000e-002
  1.0000000e-001
  9.7500000e-002
  8.5000000e-002
  8.7500000e-002
  9.0000000e-002
  9.5000000e-002
  8.7500000e-002
  8.7500000e-002
  8.5000000e-002
  8.2500000e-002
  8.5000000e-002
  8.5000000e-002
  7.5000000e-002
  7.2500000e-002
  7.7500000e-002
  8.2500000e-002
  7.2500000e-002
  7.2500000e-002
  7.7500000e-002
  8.2500000e-002
  7.7500000e-002
  7.7500000e-002
  8.2500000e-002
  7.7500000e-002
  8.2500000e-002
  8.0000000e-002
  8.2500000e-002
  7.2500000e-002
  7.5000000e-002
  7.7500000e-002
  7.5000000e-002
  6.5000000e-002
  7.2500000e-002
  7.0000000e-002
  7.0000000e-002
  7.2500000e-002
  2.1500000e-001
  1.3750000e-001
  7.2500000e-002
  6.0000000e-002
  3.5000000e-002
  3.5000000e-002
  6.7500000e-002
  8.0000000e-002
  5.7500000e-002
  5.2500000e-002
  7.5000000e-002
  7.7500000e-002
  6.2500000e-002
  6.5000000e-002
  9.0000000e-002
  9.7500000e-002
  9.7500000e-002
  1.0250000e-001
  1.0750000e-001
  1.2250000e-001
  1.1750000e-001
  1.1000000e-001
  1.2000000e-001
  1.4250000e-001
  1.5500000e-001
  1.6750000e-001
  1.6500000e-001
  1.6250000e-001
  1.5750000e-001
  1.4000000e-001
  1.1750000e-001
  1.0250000e-001
  9.0000000e-002
  6.7500000e-002
  4.7500000e-002
  4.5000000e-002
  4.5000000e-002
  4.0000000e-002
  3.7500000e-002
  3.7500000e-002
  3.5000000e-002
  2.5000000e-002
  2.2500000e-002
  2.2500000e-002
  3.5000000e-002
  3.0000000e-002
  3.0000000e-002
  2.7500000e-002
  2.5000000e-002
  1.5000000e-002
 -2.2500000e-002
 -6.5000000e-002
 -9.2500000e-002
 -9.7500000e-002
 -6.5000000e-002
  5.5000000e-002
  2.9000000e-001
  5.7750000e-001
  8.3750000e-001
  1.1150000e+000
  1.4200000e+000
  1.7225000e+000
  1.9575000e+000
  2.1475000e+000
  2.1725000e+000
  1.9275000e+000
  1.3925000e+000
  8.2750000e-001
  3.8500000e-001
  8.5000000e-002
 -5.5000000e-002
 -1.0250000e-001
 -1.6500000e-001
 -2.1250000e-001
 -2.0500000e-001
 -1.7250000e-001
 -1.8500000e-001
 -2.1500000e-001
 -2.2000000e-001
 -1.9750000e-001
 -2.0000000e-001
 -2.2250000e-001
 -2.3500000e-001
 -2.2250000e-001
 -2.1750000e-001
 -2.3250000e-001
 -2.3750000e-001
 -2.3250000e-001
 -2.3250000e-001
 -2.4250000e-001
 -2.4750000e-001
 -2.4500000e-001
 -2.4250000e-001
 -2.4750000e-001
 -2.5250000e-001
 -2.6250000e-001
 -2.6500000e-001
 -2.6750000e-001
 -2.6750000e-001
 -2.6750000e-001
 -2.6500000e-001
 -2.7500000e-001
 -2.8000000e-001
 -2.8750000e-001
 -2.8750000e-001
 -2.8750000e-001
 -2.8500000e-001
 -2.9000000e-001
 -2.9000000e-001
 -2.9750000e-001
 -3.0250000e-001
 -3.0250000e-001
 -3.0500000e-001
 -3.1000000e-001
 -3.1000000e-001
 -3.1000000e-001
 -3.1250000e-001
 -3.2000000e-001
 -3.2750000e-001
 -3.3000000e-001
 -3.3250000e-001
 -3.3250000e-001
 -3.3500000e-001
 -3.3500000e-001
 -3.3500000e-001
 -3.3000000e-001
 -3.2750000e-001
 -3.2000000e-001
 -3.2000000e-001
 -3.0750000e-001
 -2.9750000e-001
 -2.8250000e-001
 -2.6250000e-001
 -2.5000000e-001
 -2.4250000e-001
 -2.2500000e-001
 -2.0500000e-001
 -1.8750000e-001
 -1.6500000e-001
 -1.5000000e-001
 -1.2500000e-001
 -1.0500000e-001
 -7.7500000e-002
 -5.5000000e-002
 -3.2500000e-002
  0.0000000e+000
  1.7500000e-002
  3.2500000e-002
  4.5000000e-002
  5.5000000e-002
  6.2500000e-002
  6.5000000e-002
  6.7500000e-002
  7.2500000e-002
  7.7500000e-002
  7.5000000e-002
  7.0000000e-002
  6.2500000e-002
  5.7500000e-002
  5.5000000e-002
  5.7500000e-002
  5.7500000e-002
  5.5000000e-002
  5.5000000e-002
  5.7500000e-002
  5.5000000e-002
  5.0000000e-002
  5.0000000e-002
  5.0000000e-002
  5.0000000e-002
  4.7500000e-002
  4.7500000e-002
  5.0000000e-002
  5.7500000e-002
  4.7500000e-002
  4.7500000e-002
  4.7500000e-002
  4.7500000e-002
  4.7500000e-002
  4.7500000e-002
  4.2500000e-002
  4.5000000e-002
  5.2500000e-002
  5.0000000e-002
  4.5000000e-002
  4.0000000e-002
  4.0000000e-002
  4.2500000e-002
  5.0000000e-002
  2.0500000e-001
  9.7500000e-002
  4.5000000e-002
  2.7500000e-002
 -1.7500000e-002
  1.0000000e-002
  4.7500000e-002
  4.7500000e-002
  2.0000000e-002
  2.5000000e-002
  4.7500000e-002
  5.2500000e-002
  3.7500000e-002
  4.5000000e-002
  6.2500000e-002
  7.0000000e-002
  6.5000000e-002
  6.5000000e-002
  8.0000000e-002
  9.5000000e-002
  9.2500000e-002
  9.5000000e-002
  1.0750000e-001
  1.1750000e-001
  1.3500000e-001
  1.4500000e-001
  1.4250000e-001
  1.3500000e-001
  1.2000000e-001
  9.7500000e-002
  8.5000000e-002
  7.7500000e-002
  6.2500000e-002
  3.7500000e-002
  2.7500000e-002
  2.2500000e-002
  2.0000000e-002
  1.2500000e-002
  7.5000000e-003
  7.5000000e-003
  1.0000000e-002
  5.0000000e-003
  2.5000000e-003
  7.5000000e-003
  5.0000000e-003
  2.5000000e-003
  2.5000000e-003
  2.5000000e-003
  0.0000000e+000
 -2.2500000e-002
 -4.2500000e-002
 -8.0000000e-002
 -1.1250000e-001
 -1.2000000e-001
 -8.5000000e-002
  4.2500000e-002
  2.6750000e-001
  5.5750000e-001
  8.3000000e-001
  1.1275000e+000
  1.4400000e+000
  1.7600000e+000
  2.0025000e+000
  2.1850000e+000
  2.2050000e+000
  1.9650000e+000
  1.4100000e+000
  7.9000000e-001
  3.4000000e-001
  5.5000000e-002
 -8.0000000e-002
 -1.1750000e-001
 -1.6250000e-001
 -2.2500000e-001
 -2.2500000e-001
 -1.9000000e-001
 -1.9000000e-001
 -2.2750000e-001
 -2.3750000e-001
 -2.1750000e-001
 -2.1500000e-001
 -2.3750000e-001
 -2.5000000e-001
 -2.4000000e-001
 -2.3250000e-001
 -2.4500000e-001
 -2.5250000e-001
 -2.5000000e-001
 -2.4500000e-001
 -2.4750000e-001
 -2.5500000e-001
 -2.5750000e-001
 -2.5250000e-001
 -2.6000000e-001
 -2.6750000e-001
 -2.7000000e-001
 -2.7000000e-001
 -2.7500000e-001
 -2.8250000e-001
 -2.8000000e-001
 -2.7750000e-001
 -2.8000000e-001
 -2.8250000e-001
 -2.8750000e-001
 -2.9250000e-001
 -2.9250000e-001
 -2.9750000e-001
 -2.9750000e-001
 -3.0250000e-001
 -3.0000000e-001
 -3.0500000e-001
 -3.1000000e-001
 -3.1000000e-001
 -3.0750000e-001
 -3.0500000e-001
 -3.1250000e-001
 -3.2000000e-001
 -3.2000000e-001
 -3.2250000e-001
 -3.2000000e-001
 -3.2500000e-001
 -3.2500000e-001
 -3.3250000e-001
 -3.3500000e-001
 -3.3250000e-001
 -3.3000000e-001
 -3.2500000e-001
 -3.2000000e-001
 -3.1250000e-001
 -3.0250000e-001
 -2.9000000e-001
 -2.8000000e-001
 -2.6250000e-001
 -2.5500000e-001
 -2.3500000e-001
 -2.1750000e-001
 -2.0250000e-001
 -1.8250000e-001
 -1.5500000e-001
 -1.3500000e-001
 -1.1250000e-001
 -9.2500000e-002
 -6.5000000e-002
 -4.0000000e-002
 -1.5000000e-002
  1.2500000e-002
  3.5000000e-002
  4.7500000e-002
  6.0000000e-002
  7.0000000e-002
  8.0000000e-002
  8.5000000e-002
  8.2500000e-002
  8.7500000e-002
  8.5000000e-002
  8.7500000e-002
  8.0000000e-002
  7.7500000e-002
  7.2500000e-002
  7.2500000e-002
  7.0000000e-002
  6.7500000e-002
  5.7500000e-002
  5.5000000e-002
  5.7500000e-002
  5.7500000e-002
  5.5000000e-002
  5.0000000e-002
  5.2500000e-002
  5.5000000e-002
  5.2500000e-002
  5.5000000e-002
  5.7500000e-002
  5.0000000e-002
  5.5000000e-002
  5.5000000e-002
  5.5000000e-002
  5.5000000e-002
  5.7500000e-002
  5.7500000e-002
  6.0000000e-002
  6.0000000e-002
  5.7500000e-002
  5.5000000e-002
  5.7500000e-002
  5.5000000e-002
  6.0000000e-002
  5.7500000e-002
  9.0000000e-002
  2.1250000e-001
  9.0000000e-002
  5.5000000e-002
  3.5000000e-002
  1.0000000e-002
  3.0000000e-002
  6.0000000e-002
  5.5000000e-002
  3.2500000e-002
  4.7500000e-002
  7.0000000e-002
  6.5000000e-002
  5.5000000e-002
  6.5000000e-002
  9.0000000e-002
  9.2500000e-002
  8.7500000e-002
  9.0000000e-002
  1.0250000e-001
  1.0500000e-001
  1.1000000e-001
  1.1500000e-001
  1.2750000e-001
  1.3750000e-001
  1.5250000e-001
  1.5750000e-001
  1.5250000e-001
  1.4500000e-001
  1.3250000e-001
  1.1750000e-001
  1.0250000e-001
  8.5000000e-002
  7.2500000e-002
  5.2500000e-002
  4.0000000e-002
  3.7500000e-002
  3.5000000e-002
  3.0000000e-002
  2.2500000e-002
  2.5000000e-002
  2.7500000e-002
  2.5000000e-002
  2.2500000e-002
  3.0000000e-002
  2.7500000e-002
  2.2500000e-002
  2.0000000e-002
  2.2500000e-002
  1.5000000e-002
 -1.5000000e-002
 -4.0000000e-002
 -7.5000000e-002
 -9.7500000e-002
 -8.2500000e-002
  0.0000000e+000
  1.6250000e-001
  4.2000000e-001
  7.1750000e-001
  1.0150000e+000
  1.3325000e+000
  1.6600000e+000
  1.9500000e+000
  2.1500000e+000
  2.2775000e+000
  2.1700000e+000
  1.7700000e+000
  1.1025000e+000
  5.3750000e-001
  1.6250000e-001
 -3.5000000e-002
 -8.0000000e-002
 -1.1000000e-001
 -1.7250000e-001
 -2.1250000e-001
 -1.8500000e-001
 -1.6000000e-001
 -1.8250000e-001
 -2.1500000e-001
 -2.0500000e-001
 -1.8250000e-001
 -2.0000000e-001
 -2.2500000e-001
 -2.2250000e-001
 -2.0750000e-001
 -2.1000000e-001
 -2.2500000e-001
 -2.3000000e-001
 -2.2250000e-001
 -2.2500000e-001
 -2.3500000e-001
 -2.4250000e-001
 -2.3500000e-001
 -2.4000000e-001
 -2.4500000e-001
 -2.5000000e-001
 -2.4500000e-001
 -2.4750000e-001
 -2.5250000e-001
 -2.6250000e-001
 -2.6000000e-001
 -2.6000000e-001
 -2.7000000e-001
 -2.7250000e-001
 -2.7000000e-001
 -2.7000000e-001
 -2.7000000e-001
 -2.8000000e-001
 -2.8000000e-001
 -2.7750000e-001
 -2.8000000e-001
 -2.8500000e-001
 -2.9000000e-001
 -2.9000000e-001
 -2.9250000e-001
 -2.9250000e-001
 -2.9500000e-001
 -2.9250000e-001
 -3.0250000e-001
 -3.0500000e-001
 -3.0750000e-001
 -3.0750000e-001
 -3.1000000e-001
 -3.0750000e-001
 -3.1000000e-001
 -3.0500000e-001
 -3.0500000e-001
 -3.0000000e-001
 -3.0000000e-001
 -2.8750000e-001
 -2.7750000e-001
 -2.6250000e-001
 -2.5500000e-001
 -2.4250000e-001
 -2.2500000e-001
 -2.0750000e-001
 -1.8500000e-001
 -1.6250000e-001
 -1.4500000e-001
 -1.2500000e-001
 -1.0000000e-001
 -7.7500000e-002
 -4.7500000e-002
 -3.0000000e-002
  7.5000000e-003
  2.7500000e-002
  4.7500000e-002
  5.7500000e-002
  7.2500000e-002
  8.0000000e-002
  9.5000000e-002
  1.0250000e-001
  1.0750000e-001
  1.0500000e-001
  1.0500000e-001
  1.0500000e-001
  1.0750000e-001
  9.7500000e-002
  9.2500000e-002
  8.7500000e-002
  8.0000000e-002
  8.2500000e-002
  8.2500000e-002
  7.7500000e-002
  7.0000000e-002
  7.0000000e-002
  7.0000000e-002
  7.2500000e-002
  6.7500000e-002
  6.5000000e-002
  6.2500000e-002
  6.5000000e-002
  6.5000000e-002
  6.5000000e-002
  6.5000000e-002
  7.0000000e-002
  7.2500000e-002
  7.5000000e-002
  7.0000000e-002
  7.2500000e-002
  7.2500000e-002
  6.7500000e-002
  6.5000000e-002
  6.7500000e-002
  6.2500000e-002
  6.2500000e-002
  7.0000000e-002
  6.7500000e-002
  6.5000000e-002
  1.5250000e-001
  1.9000000e-001
  7.7500000e-002
  6.0000000e-002
  3.2500000e-002
  2.0000000e-002
  5.0000000e-002
  7.5000000e-002
  5.2500000e-002
  3.7500000e-002
  6.0000000e-002
  8.2500000e-002
  7.0000000e-002
  5.7500000e-002
  6.7500000e-002
  9.0000000e-002
  9.2500000e-002
  8.2500000e-002
  8.5000000e-002
  1.0500000e-001
  1.1250000e-001
  1.1000000e-001
  1.1750000e-001
  1.3750000e-001
  1.5250000e-001
  1.6250000e-001
  1.6250000e-001
  1.5250000e-001
  1.4500000e-001
  1.3000000e-001
  1.1250000e-001
  9.7500000e-002
  8.7500000e-002
  7.5000000e-002
  5.7500000e-002
  4.5000000e-002
  4.0000000e-002
  3.7500000e-002
  3.2500000e-002
  2.5000000e-002
  2.5000000e-002
  2.2500000e-002
  2.0000000e-002
  2.2500000e-002
  2.7500000e-002
  2.7500000e-002
  2.2500000e-002
  2.2500000e-002
  2.2500000e-002
  1.2500000e-002
 -1.5000000e-002
 -3.7500000e-002
 -6.7500000e-002
 -8.7500000e-002
 -8.0000000e-002
  5.0000000e-003
  1.8250000e-001
  4.6000000e-001
  7.4250000e-001
  1.0300000e+000
  1.3450000e+000
  1.6725000e+000
  1.9575000e+000
  2.1600000e+000
  2.2725000e+000
  2.1375000e+000
  1.7175000e+000
  1.0675000e+000
  5.2750000e-001
  1.6500000e-001
 -3.0000000e-002
 -8.5000000e-002
 -1.2500000e-001
 -1.8500000e-001
 -2.1250000e-001
 -1.8500000e-001
 -1.6500000e-001
 -1.9750000e-001
 -2.2250000e-001
 -2.1000000e-001
 -1.9000000e-001
 -2.1000000e-001
 -2.3250000e-001
 -2.3500000e-001
 -2.1750000e-001
 -2.2500000e-001
 -2.3750000e-001
 -2.3500000e-001
 -2.2500000e-001
 -2.3250000e-001
 -2.4000000e-001
 -2.4000000e-001
 -2.4000000e-001
 -2.4500000e-001
 -2.5750000e-001
 -2.6000000e-001
 -2.6000000e-001
 -2.6500000e-001
 -2.7000000e-001
 -2.7250000e-001
 -2.6500000e-001
 -2.5500000e-001
 -2.6000000e-001
 -2.7000000e-001
 -2.8000000e-001
 -2.7750000e-001
 -2.7500000e-001
 -2.7750000e-001
 -2.8750000e-001
 -2.9000000e-001
 -2.9750000e-001
 -2.9500000e-001
 -2.9000000e-001
 -2.9000000e-001
 -2.9250000e-001
 -2.9500000e-001
 -3.0000000e-001
 -3.0750000e-001
 -3.1250000e-001
 -3.1250000e-001
 -3.1000000e-001
 -3.1750000e-001
 -3.2000000e-001
 -3.2500000e-001
 -3.1750000e-001
 -3.1750000e-001
 -3.1000000e-001
 -3.1000000e-001
 -3.0500000e-001
 -2.9250000e-001
 -2.8000000e-001
 -2.7000000e-001
 -2.5000000e-001
 -2.4000000e-001
 -2.2500000e-001
 -2.1750000e-001
 -2.0250000e-001
 -1.7750000e-001
 -1.4500000e-001
 -1.2250000e-001
 -9.7500000e-002
 -8.2500000e-002
 -7.0000000e-002
 -4.7500000e-002
 -1.7500000e-002
  2.2500000e-002
  3.7500000e-002
  5.7500000e-002
  6.5000000e-002
  7.7500000e-002
  8.7500000e-002
  9.7500000e-002
  1.0000000e-001
  1.0000000e-001
  9.7500000e-002
  9.7500000e-002
  1.0000000e-001
  1.0500000e-001
  1.0000000e-001
  1.0000000e-001
  9.5000000e-002
  8.5000000e-002
  7.5000000e-002
  7.5000000e-002
  7.2500000e-002
  8.0000000e-002
  8.0000000e-002
  7.2500000e-002
  6.5000000e-002
  7.2500000e-002
  8.2500000e-002
  8.2500000e-002
  7.5000000e-002
  7.5000000e-002
  7.2500000e-002
  6.7500000e-002
  7.5000000e-002
  7.5000000e-002
  7.0000000e-002
  7.0000000e-002
  7.5000000e-002
  7.0000000e-002
  7.0000000e-002
  6.5000000e-002
  7.0000000e-002
  7.0000000e-002
  7.5000000e-002
  8.2500000e-002
  7.7500000e-002
  2.0000000e-001
  1.6000000e-001
  8.0000000e-002
  6.7500000e-002
  3.5000000e-002
  2.7500000e-002
  6.2500000e-002
  7.7500000e-002
  5.7500000e-002
  5.0000000e-002
  8.0000000e-002
  9.5000000e-002
  8.7500000e-002
  7.7500000e-002
  8.7500000e-002
  9.7500000e-002
  1.0000000e-001
  9.5000000e-002
  1.1250000e-001
  1.2000000e-001
  1.2500000e-001
  1.3000000e-001
  1.4250000e-001
  1.5000000e-001
  1.6000000e-001
  1.6250000e-001
  1.7000000e-001
  1.7500000e-001
  1.6500000e-001
  1.5000000e-001
  1.3000000e-001
  1.1750000e-001
  1.0500000e-001
  9.5000000e-002
  7.7500000e-002
  6.2500000e-002
  5.2500000e-002
  5.2500000e-002
  4.7500000e-002
  4.5000000e-002
  4.2500000e-002
  4.5000000e-002
  4.5000000e-002
  5.0000000e-002
  4.7500000e-002
  4.7500000e-002
  4.2500000e-002
  4.5000000e-002
  5.2500000e-002
  5.0000000e-002
  2.2500000e-002
 -2.5000000e-002
 -5.2500000e-002
 -8.5000000e-002
 -7.7500000e-002
  1.0000000e-002
  1.8250000e-001
  4.4750000e-001
  7.2500000e-001
  9.9000000e-001
  1.2700000e+000
  1.5675000e+000
  1.8600000e+000
  2.0625000e+000
  2.2100000e+000
  2.1350000e+000
  1.7600000e+000
  1.1525000e+000
  6.3750000e-001
  2.6250000e-001
  3.7500000e-002
 -5.2500000e-002
 -1.0250000e-001
 -1.6250000e-001
 -1.8750000e-001
 -1.5750000e-001
 -1.4000000e-001
 -1.6250000e-001
 -1.8500000e-001
 -1.8250000e-001
 -1.6250000e-001
 -1.7750000e-001
 -2.0000000e-001
 -2.0500000e-001
 -1.9250000e-001
 -1.9250000e-001
 -2.0500000e-001
 -2.0000000e-001
 -1.9750000e-001
 -2.0250000e-001
 -2.1750000e-001
 -2.1500000e-001
 -2.1000000e-001
 -2.0500000e-001
 -2.2250000e-001
 -2.3500000e-001
 -2.3500000e-001
 -2.3750000e-001
 -2.3750000e-001
 -2.2750000e-001
 -2.2500000e-001
 -2.2500000e-001
 -2.3500000e-001
 -2.3750000e-001
 -2.3750000e-001
 -2.3500000e-001
 -2.4500000e-001
 -2.5750000e-001
 -2.5500000e-001
 -2.5000000e-001
 -2.6000000e-001
 -2.6500000e-001
 -2.6750000e-001
 -2.7250000e-001
 -2.7000000e-001
 -2.7000000e-001
 -2.6500000e-001
 -2.6500000e-001
 -2.6750000e-001
 -2.7000000e-001
 -2.8500000e-001
 -2.8750000e-001
 -2.9250000e-001
 -2.8500000e-001
 -2.7500000e-001
 -2.7500000e-001
 -2.7750000e-001
 -2.8000000e-001
 -2.8250000e-001
 -2.8500000e-001
 -2.6500000e-001
 -2.4500000e-001
 -2.3750000e-001
 -2.2250000e-001
 -2.0250000e-001
 -1.8250000e-001
 -1.7000000e-001
 -1.5250000e-001
 -1.3000000e-001
 -1.1250000e-001
 -9.0000000e-002
 -7.5000000e-002
 -6.5000000e-002
 -4.0000000e-002
  0.0000000e+000
  2.5000000e-002
  4.0000000e-002
  5.7500000e-002
  6.5000000e-002
  8.2500000e-002
  9.2500000e-002
  1.0250000e-001
  1.1000000e-001
  1.1500000e-001
  1.1750000e-001
  1.1500000e-001
  1.1000000e-001
  1.0750000e-001
  1.1000000e-001
  1.0250000e-001
  1.0000000e-001
  1.0750000e-001
  1.1250000e-001
  1.0250000e-001
  9.7500000e-002
  9.2500000e-002
  9.2500000e-002
  9.0000000e-002
  9.5000000e-002
  9.7500000e-002
  9.0000000e-002
  8.5000000e-002
  9.0000000e-002
  8.7500000e-002
  8.7500000e-002
  8.5000000e-002
  9.2500000e-002
  9.7500000e-002
  9.7500000e-002
  8.7500000e-002
  8.0000000e-002
  7.2500000e-002
  7.2500000e-002
  8.5000000e-002
  9.0000000e-002
  9.2500000e-002
  7.7500000e-002
  7.7500000e-002
  7.5000000e-002
  2.3000000e-001
  1.4000000e-001
  8.2500000e-002
  7.0000000e-002
  3.7500000e-002
  3.7500000e-002
  7.2500000e-002
  7.2500000e-002
  5.5000000e-002
  5.7500000e-002
  8.2500000e-002
  8.5000000e-002
  7.0000000e-002
  7.5000000e-002
  9.7500000e-002
  1.0250000e-001
  9.7500000e-002
  9.5000000e-002
  1.0500000e-001
  1.2000000e-001
  1.2500000e-001
  1.2250000e-001
  1.3000000e-001
  1.4750000e-001
  1.5750000e-001
  1.6500000e-001
  1.6750000e-001
  1.6000000e-001
  1.5000000e-001
  1.3750000e-001
  1.1750000e-001
  1.1000000e-001
  8.7500000e-002
  6.7500000e-002
  5.2500000e-002
  4.5000000e-002
  3.7500000e-002
  3.5000000e-002
  3.2500000e-002
  3.2500000e-002
  3.5000000e-002
  3.2500000e-002
  2.7500000e-002
  2.5000000e-002
  2.7500000e-002
  2.7500000e-002
  2.7500000e-002
  2.2500000e-002
  2.2500000e-002
  1.2500000e-002
 -1.5000000e-002
 -4.7500000e-002
 -8.2500000e-002
 -1.0750000e-001
 -8.7500000e-002
 -1.5000000e-002
  1.7500000e-001
  4.4250000e-001
  7.1250000e-001
  9.9000000e-001
  1.2875000e+000
  1.5900000e+000
  1.8775000e+000
  2.0750000e+000
  2.1925000e+000
  2.0675000e+000
  1.6625000e+000
  1.0575000e+000
  5.5000000e-001
  1.9500000e-001
 -1.5000000e-002
 -8.2500000e-002
 -1.3000000e-001
 -1.8750000e-001
 -2.1500000e-001
 -1.8750000e-001
 -1.7500000e-001
 -2.0750000e-001
 -2.3250000e-001
 -2.1500000e-001
 -2.0250000e-001
 -2.2000000e-001
 -2.4000000e-001
 -2.3500000e-001
 -2.2250000e-001
 -2.3000000e-001
 -2.4250000e-001
 -2.4000000e-001
 -2.3250000e-001
 -2.3750000e-001
 -2.4750000e-001
 -2.5250000e-001
 -2.5250000e-001
 -2.6250000e-001
 -2.6500000e-001
 -2.6500000e-001
 -2.6000000e-001
 -2.6000000e-001
 -2.6500000e-001
 -2.7500000e-001
 -2.7500000e-001
 -2.7750000e-001
 -2.7750000e-001
 -2.8250000e-001
 -2.8250000e-001
 -2.8500000e-001
 -2.8750000e-001
 -2.9500000e-001
 -2.9500000e-001
 -2.9500000e-001
 -2.9750000e-001
 -3.0250000e-001
 -3.0250000e-001
 -3.0250000e-001
 -3.0750000e-001
 -3.1250000e-001
 -3.1000000e-001
 -3.1250000e-001
 -3.2000000e-001
 -3.2000000e-001
 -3.2750000e-001
 -3.3000000e-001
 -3.2750000e-001
 -3.2750000e-001
 -3.3250000e-001
 -3.3000000e-001
 -3.2500000e-001
 -3.1500000e-001
 -3.1500000e-001
 -3.0500000e-001
 -2.9750000e-001
 -2.9000000e-001
 -2.7750000e-001
 -2.6000000e-001
 -2.4250000e-001
 -2.2250000e-001
 -2.1000000e-001
 -1.9250000e-001
 -1.6750000e-001
 -1.4500000e-001
 -1.2250000e-001
 -9.5000000e-002
 -7.0000000e-002
 -5.0000000e-002
 -2.5000000e-002
  7.5000000e-003
  2.5000000e-002
  4.2500000e-002
  5.7500000e-002
  6.5000000e-002
  7.0000000e-002
  7.5000000e-002
  8.2500000e-002
  8.0000000e-002
  8.0000000e-002
  7.7500000e-002
  7.7500000e-002
  7.5000000e-002
  7.5000000e-002
  6.5000000e-002
  6.2500000e-002
  5.7500000e-002
  5.7500000e-002
  5.5000000e-002
  5.5000000e-002
  4.7500000e-002
  4.7500000e-002
  4.7500000e-002
  4.5000000e-002
  4.5000000e-002
  4.7500000e-002
  4.7500000e-002
  4.2500000e-002
  4.5000000e-002
  4.5000000e-002
  4.7500000e-002
  4.7500000e-002
  5.0000000e-002
  5.0000000e-002
  5.0000000e-002
  4.7500000e-002
  5.0000000e-002
  4.5000000e-002
  4.7500000e-002
  5.0000000e-002
  5.2500000e-002
  4.7500000e-002
  4.5000000e-002
  6.0000000e-002
  2.0750000e-001
  8.7500000e-002
  4.7500000e-002
  2.2500000e-002
 -2.0000000e-002
  1.5000000e-002
  5.2500000e-002
  5.0000000e-002
  2.0000000e-002
  3.2500000e-002
  5.0000000e-002
  5.2500000e-002
  4.0000000e-002
  5.0000000e-002
  7.0000000e-002
  8.2500000e-002
  7.5000000e-002
  7.5000000e-002
  8.2500000e-002
  9.7500000e-002
  9.7500000e-002
  1.0000000e-001
  1.1250000e-001
  1.2500000e-001
  1.4000000e-001
  1.4500000e-001
  1.4000000e-001
  1.4000000e-001
  1.2750000e-001
  1.0250000e-001
  9.2500000e-002
  7.7500000e-002
  6.0000000e-002
  4.2500000e-002
  3.5000000e-002
  2.0000000e-002
  1.7500000e-002
  1.2500000e-002
  1.0000000e-002
  1.5000000e-002
  1.5000000e-002
  1.0000000e-002
  7.5000000e-003
  5.0000000e-003
  7.5000000e-003
  5.0000000e-003
  2.5000000e-003
 -1.5000000e-002
  2.5000000e-003
 -1.5000000e-002
 -4.2500000e-002
 -8.0000000e-002
 -1.0250000e-001
 -1.1000000e-001
 -7.0000000e-002
  6.5000000e-002
  2.9250000e-001
  5.8250000e-001
  8.7000000e-001
  1.1800000e+000
  1.4975000e+000
  1.8100000e+000
  2.0300000e+000
  2.1975000e+000
  2.1900000e+000
  1.9175000e+000
  1.3200000e+000
  7.0000000e-001
  2.6500000e-001
  1.2500000e-002
 -8.5000000e-002
 -1.1500000e-001
 -1.7000000e-001
 -2.2250000e-001
 -2.1750000e-001
 -1.8000000e-001
 -1.8750000e-001
 -2.2250000e-001
 -2.3000000e-001
 -2.1000000e-001
 -2.0750000e-001
 -2.3250000e-001
 -2.4250000e-001
 -2.2250000e-001
 -2.1750000e-001
 -2.4000000e-001
 -2.4750000e-001
 -2.4250000e-001
 -2.3750000e-001
 -2.4500000e-001
 -2.5000000e-001
 -2.5000000e-001
 -2.4500000e-001
 -2.5250000e-001
 -2.6000000e-001
 -2.6250000e-001
 -2.6000000e-001
 -2.6750000e-001
 -2.7250000e-001
 -2.7000000e-001
 -2.7250000e-001
 -2.8000000e-001
 -2.8000000e-001
 -2.8250000e-001
 -2.8000000e-001
 -2.8250000e-001
 -2.8500000e-001
 -2.9000000e-001
 -2.9500000e-001
 -2.9500000e-001
 -3.0000000e-001
 -2.9750000e-001
 -3.0000000e-001
 -3.0000000e-001
 -3.0750000e-001
 -3.0500000e-001
 -3.1000000e-001
 -3.1250000e-001
 -3.2000000e-001
 -3.2000000e-001
 -3.1750000e-001
 -3.2000000e-001
 -3.2500000e-001
 -3.2000000e-001
 -3.2000000e-001
 -3.2000000e-001
 -3.2000000e-001
 -3.1000000e-001
 -3.0250000e-001
 -2.9500000e-001
 -2.8250000e-001
 -2.7250000e-001
 -2.5750000e-001
 -2.4250000e-001
 -2.2250000e-001
 -2.1250000e-001
 -1.9500000e-001
 -1.6750000e-001
 -1.4250000e-001
 -1.2250000e-001
 -1.0000000e-001
 -8.0000000e-002
 -5.2500000e-002
 -3.0000000e-002
  0.0000000e+000
  2.2500000e-002
  3.7500000e-002
  5.2500000e-002
  7.0000000e-002
  7.5000000e-002
  7.7500000e-002
  8.0000000e-002
  8.7500000e-002
  8.7500000e-002
  8.7500000e-002
  8.2500000e-002
  7.7500000e-002
  7.7500000e-002
  7.5000000e-002
  7.2500000e-002
  6.5000000e-002
  6.0000000e-002
  5.7500000e-002
  5.7500000e-002
  5.5000000e-002
  5.7500000e-002
  5.5000000e-002
  5.2500000e-002
  4.2500000e-002
  4.5000000e-002
  4.2500000e-002
  4.5000000e-002
  4.5000000e-002
  4.7500000e-002
  4.7500000e-002
  4.7500000e-002
  4.2500000e-002
  4.5000000e-002
  5.2500000e-002
  4.5000000e-002
  5.0000000e-002
  4.7500000e-002
  4.7500000e-002
  5.0000000e-002
  5.0000000e-002
  4.5000000e-002
  4.7500000e-002
  4.5000000e-002
  1.0250000e-001
  1.9750000e-001
  7.7500000e-002
  5.0000000e-002
  2.0000000e-002
 -1.5000000e-002
  2.7500000e-002
  5.7500000e-002
  4.7500000e-002
  2.2500000e-002
  4.0000000e-002
  6.2500000e-002
  5.5000000e-002
  4.0000000e-002
  6.0000000e-002
  8.2500000e-002
  7.7500000e-002
  7.2500000e-002
  7.2500000e-002
  9.2500000e-002
  9.7500000e-002
  9.7500000e-002
  1.0500000e-001
  1.2000000e-001
  1.3250000e-001
  1.4750000e-001
  1.4750000e-001
  1.4000000e-001
  1.3750000e-001
  1.2000000e-001
  9.5000000e-002
  8.7500000e-002
  7.0000000e-002
  5.5000000e-002
  4.0000000e-002
  3.0000000e-002
  2.7500000e-002
  1.7500000e-002
  1.2500000e-002
  1.2500000e-002
  1.5000000e-002
  1.0000000e-002
  1.2500000e-002
  7.5000000e-003
  1.0000000e-002
  1.0000000e-002
  1.2500000e-002
  5.0000000e-003
  7.5000000e-003
  0.0000000e+000
 -2.5000000e-002
 -5.2500000e-002
 -8.2500000e-002
 -1.0750000e-001
 -1.0000000e-001
 -4.0000000e-002
  1.2750000e-001
  3.8500000e-001
  6.8000000e-001
  9.7500000e-001
  1.2925000e+000
  1.6150000e+000
  1.9075000e+000
  2.0925000e+000
  2.2350000e+000
  2.1450000e+000
  1.7700000e+000
  1.1200000e+000
  5.3250000e-001
  1.4750000e-001
 -5.7500000e-002
 -1.0250000e-001
 -1.3000000e-001
 -1.8500000e-001
 -2.3000000e-001
 -2.1000000e-001
 -1.8250000e-001
 -2.0000000e-001
 -2.3500000e-001
 -2.2750000e-001
 -2.1000000e-001
 -2.1750000e-001
 -2.4250000e-001
 -2.4250000e-001
 -2.3250000e-001
 -2.3000000e-001
 -2.4250000e-001
 -2.5000000e-001
 -2.4250000e-001
 -2.4000000e-001
 -2.5250000e-001
 -2.6000000e-001
 -2.5250000e-001
 -2.5500000e-001
 -2.6000000e-001
 -2.6500000e-001
 -2.6000000e-001
 -2.6750000e-001
 -2.7250000e-001
 -2.7750000e-001
 -2.7500000e-001
 -2.7750000e-001
 -2.7750000e-001
 -2.8750000e-001
 -2.9000000e-001
 -2.9000000e-001
 -2.8750000e-001
 -2.9250000e-001
 -2.9750000e-001
 -2.9750000e-001
 -2.9500000e-001
 -2.9500000e-001
 -3.0250000e-001
 -3.1000000e-001
 -3.1000000e-001
 -3.1000000e-001
 -3.1250000e-001
 -3.1000000e-001
 -3.1750000e-001
 -3.2500000e-001
 -3.2750000e-001
 -3.2750000e-001
 -3.3000000e-001
 -3.3000000e-001
 -3.2750000e-001
 -3.2500000e-001
 -3.3000000e-001
 -3.1750000e-001
 -3.1250000e-001
 -3.0500000e-001
 -3.0000000e-001
 -2.8750000e-001
 -2.7750000e-001
 -2.6000000e-001
 -2.4500000e-001
 -2.3000000e-001
 -2.1250000e-001
 -1.9250000e-001
 -1.7000000e-001
 -1.4500000e-001
 -1.2000000e-001
 -1.0000000e-001
 -7.5000000e-002
 -5.2500000e-002
 -3.0000000e-002
  5.0000000e-003
  2.5000000e-002
  4.0000000e-002
  5.7500000e-002
  6.5000000e-002
  7.7500000e-002
  7.7500000e-002
  8.0000000e-002
  8.0000000e-002
  8.2500000e-002
  8.5000000e-002
  8.5000000e-002
  8.2500000e-002
  7.5000000e-002
  6.5000000e-002
  6.5000000e-002
  6.5000000e-002
  6.2500000e-002
  5.7500000e-002
  5.5000000e-002
  5.0000000e-002
  4.7500000e-002
  4.7500000e-002
  4.2500000e-002
  4.2500000e-002
  4.2500000e-002
  4.7500000e-002
  5.0000000e-002
  5.0000000e-002
  5.0000000e-002
  4.5000000e-002
  4.0000000e-002
  4.2500000e-002
  3.7500000e-002
  3.7500000e-002
  3.5000000e-002
  3.7500000e-002
  3.7500000e-002
  4.5000000e-002
  4.2500000e-002
  4.7500000e-002
  5.0000000e-002
  4.2500000e-002
  4.0000000e-002
  1.5500000e-001
  1.5750000e-001
  5.2500000e-002
  3.5000000e-002
  2.5000000e-003
 -1.7500000e-002
  3.2500000e-002
  5.5000000e-002
  3.7500000e-002
  2.2500000e-002
  3.7500000e-002
  6.2500000e-002
  5.0000000e-002
  4.2500000e-002
  5.7500000e-002
  7.5000000e-002
  6.7500000e-002
  6.2500000e-002
  7.5000000e-002
  9.0000000e-002
  9.2500000e-002
  9.2500000e-002
  1.0250000e-001
  1.1750000e-001
  1.2750000e-001
  1.4250000e-001
  1.4500000e-001
  1.4250000e-001
  1.3500000e-001
  1.0750000e-001
  8.5000000e-002
  7.7500000e-002
  6.2500000e-002
  4.7500000e-002
  3.7500000e-002
  2.2500000e-002
  2.0000000e-002
  1.5000000e-002
  7.5000000e-003
  7.5000000e-003
  1.0000000e-002
  7.5000000e-003
  5.0000000e-003
  7.5000000e-003
  1.0000000e-002
  5.0000000e-003
  2.5000000e-003
  0.0000000e+000
  0.0000000e+000
  0.0000000e+000
 -2.7500000e-002
 -5.7500000e-002
 -9.7500000e-002
 -1.2250000e-001
 -1.1250000e-001
 -4.0000000e-002
  1.3500000e-001
  3.9750000e-001
  6.7750000e-001
  9.5750000e-001
  1.2625000e+000
  1.5775000e+000
  1.8750000e+000
  2.0825000e+000
  2.2250000e+000
  2.1400000e+000
  1.7675000e+000
  1.1350000e+000
  5.8250000e-001
  1.9500000e-001
 -3.5000000e-002
 -1.0000000e-001
 -1.3750000e-001
 -2.0000000e-001
 -2.4000000e-001
 -2.1000000e-001
 -1.8250000e-001
 -2.1000000e-001
 -2.3500000e-001
 -2.2750000e-001
 -2.1500000e-001
 -2.3250000e-001
 -2.5250000e-001
 -2.5500000e-001
 -2.3750000e-001
 -2.4000000e-001
 -2.4750000e-001
 -2.5250000e-001
 -2.4000000e-001
 -2.4500000e-001
 -2.5250000e-001
 -2.6250000e-001
 -2.6250000e-001
 -2.6250000e-001
 -2.7000000e-001
 -2.8250000e-001
 -2.7750000e-001
 -2.7750000e-001
 -2.8500000e-001
 -2.8250000e-001
 -2.8000000e-001
 -2.8000000e-001
 -2.8500000e-001
 -2.9500000e-001
 -2.9750000e-001
 -2.9750000e-001
 -2.9750000e-001
 -3.0000000e-001
 -3.0500000e-001
 -3.0750000e-001
 -3.1250000e-001
 -3.1250000e-001
 -3.1250000e-001
 -3.1000000e-001
 -3.1750000e-001
 -3.2000000e-001
 -3.2750000e-001
 -3.3250000e-001
 -3.3500000e-001
 -3.3750000e-001
 -3.4000000e-001
 -3.4000000e-001
 -3.3750000e-001
 -3.4000000e-001
 -3.4000000e-001
 -3.3500000e-001
 -3.3000000e-001
 -3.2750000e-001
 -3.2250000e-001
 -3.1750000e-001
 -3.1250000e-001
 -3.0500000e-001
 -2.8750000e-001
 -2.7250000e-001
 -2.5250000e-001
 -2.4000000e-001
 -2.1750000e-001
 -2.0250000e-001
 -1.8000000e-001
 -1.6000000e-001
 -1.3500000e-001
 -1.1500000e-001
 -9.0000000e-002
 -6.5000000e-002
 -4.5000000e-002
 -3.0000000e-002
  2.5000000e-003
  3.0000000e-002
  4.5000000e-002
  5.2500000e-002
  5.7500000e-002
  6.2500000e-002
  6.5000000e-002
  7.0000000e-002
  7.2500000e-002
  7.2500000e-002
  7.0000000e-002
  7.0000000e-002
  6.7500000e-002
  6.5000000e-002
  5.7500000e-002
  5.5000000e-002
  5.0000000e-002
  5.2500000e-002
  5.0000000e-002
  4.5000000e-002
  4.0000000e-002
  4.0000000e-002
  4.0000000e-002
  3.5000000e-002
  3.5000000e-002
  3.7500000e-002
  3.7500000e-002
  4.0000000e-002
  4.0000000e-002
  4.0000000e-002
  4.0000000e-002
  3.7500000e-002
  4.2500000e-002
  4.2500000e-002
  4.5000000e-002
  4.2500000e-002
  4.0000000e-002
  3.7500000e-002
  3.7500000e-002
  3.5000000e-002
  3.2500000e-002
  3.5000000e-002
  3.7500000e-002
  1.9000000e-001
  1.2000000e-001
  4.0000000e-002
  2.2500000e-002
 -1.7500000e-002
 -1.5000000e-002
  3.2500000e-002
  4.0000000e-002
  1.7500000e-002
  1.2500000e-002
  3.7500000e-002
  4.7500000e-002
  4.0000000e-002
  3.5000000e-002
  5.7500000e-002
  7.0000000e-002
  6.2500000e-002
  6.0000000e-002
  6.7500000e-002
  8.0000000e-002
  8.5000000e-002
  8.2500000e-002
  9.5000000e-002
  1.1000000e-001
  1.2750000e-001
  1.3750000e-001
  1.3750000e-001
  1.2500000e-001
  1.1750000e-001
  9.7500000e-002
  8.2500000e-002
  7.0000000e-002
  5.5000000e-002
  3.5000000e-002
  2.5000000e-002
  1.7500000e-002
  1.2500000e-002
  1.0000000e-002
  2.5000000e-003
 -1.5000000e-002
 -1.5000000e-002
 -1.2500000e-002
 -2.0000000e-002
 -2.0000000e-002
 -1.5000000e-002
 -1.5000000e-002
 -1.7500000e-002
 -2.0000000e-002
 -1.7500000e-002
 -2.5000000e-002
 -4.5000000e-002
 -7.7500000e-002
 -1.1000000e-001
 -1.2500000e-001
 -1.0750000e-001
 -2.5000000e-002
  1.7500000e-001
  4.5500000e-001
  7.3500000e-001
  1.0250000e+000
  1.3350000e+000
  1.6500000e+000
  1.9225000e+000
  2.1175000e+000
  2.2175000e+000
  2.0600000e+000
  1.6075000e+000
  9.6250000e-001
  4.5250000e-001
  1.1250000e-001
 -6.7500000e-002
 -1.1500000e-001
 -1.5750000e-001
 -2.2250000e-001
 -2.4000000e-001
 -2.1250000e-001
 -1.9250000e-001
 -2.2500000e-001
 -2.4750000e-001
 -2.3000000e-001
 -2.1750000e-001
 -2.4250000e-001
 -2.6000000e-001
 -2.5500000e-001
 -2.4250000e-001
 -2.5250000e-001
 -2.6250000e-001
 -2.5750000e-001
 -2.5250000e-001
 -2.5500000e-001
 -2.6750000e-001
 -2.7250000e-001
 -2.6750000e-001
 -2.6500000e-001
 -2.7750000e-001
 -2.8000000e-001
 -2.8000000e-001
 -2.8250000e-001
 -2.8750000e-001
 -2.8250000e-001
 -2.8500000e-001
 -2.9250000e-001
 -2.9750000e-001
 -2.9750000e-001
 -3.0000000e-001
 -3.0000000e-001
 -3.0500000e-001
 -3.0750000e-001
 -3.0750000e-001
 -3.0750000e-001
 -3.1250000e-001
 -3.1750000e-001
 -3.2000000e-001
 -3.2000000e-001
 -3.2000000e-001
 -3.2500000e-001
 -3.3000000e-001
 -3.3000000e-001
 -3.2750000e-001
 -3.3250000e-001
 -3.3000000e-001
 -3.3500000e-001
 -3.3750000e-001
 -3.4000000e-001
 -3.3500000e-001
 -3.3750000e-001
 -3.3250000e-001
 -3.3000000e-001
 -3.1750000e-001
 -3.1250000e-001
 -3.0500000e-001
 -2.9750000e-001
 -2.8250000e-001
 -2.7000000e-001
 -2.5000000e-001
 -2.3250000e-001
 -2.1250000e-001
 -1.9250000e-001
 -1.7000000e-001
 -1.4500000e-001
 -1.2750000e-001
 -1.0250000e-001
 -7.7500000e-002
 -5.0000000e-002
 -3.2500000e-002
  0.0000000e+000
  1.7500000e-002
  3.5000000e-002
  4.7500000e-002
  6.2500000e-002
  7.5000000e-002
  7.5000000e-002
  7.5000000e-002
  7.5000000e-002
  7.0000000e-002
  7.2500000e-002
  7.5000000e-002
  6.5000000e-002
  6.0000000e-002
  6.2500000e-002
  5.5000000e-002
  5.2500000e-002
  4.7500000e-002
  4.2500000e-002
  4.2500000e-002
  4.0000000e-002
  4.0000000e-002
  3.7500000e-002
  3.7500000e-002
  3.7500000e-002
  4.2500000e-002
  4.5000000e-002
  5.0000000e-002
  4.2500000e-002
  4.5000000e-002
  4.0000000e-002
  4.2500000e-002
  4.7500000e-002
  4.7500000e-002
  5.0000000e-002
  4.7500000e-002
  4.0000000e-002
  4.2500000e-002
  4.5000000e-002
  4.2500000e-002
  4.7500000e-002
  4.5000000e-002
  4.2500000e-002
  4.5000000e-002
  2.2000000e-001
  1.0500000e-001
  4.7500000e-002
  2.7500000e-002
 -2.0000000e-002
  7.5000000e-003
  5.2500000e-002
  4.7500000e-002
  2.5000000e-002
  2.7500000e-002
  5.7500000e-002
  5.7500000e-002
  4.2500000e-002
  4.5000000e-002
  7.0000000e-002
  8.0000000e-002
  7.7500000e-002
  7.0000000e-002
  8.7500000e-002
  9.7500000e-002
  9.7500000e-002
  9.5000000e-002
  1.0750000e-001
  1.2500000e-001
  1.3750000e-001
  1.5250000e-001
  1.4000000e-001
  1.3250000e-001
  1.2000000e-001
  1.0000000e-001
  8.7500000e-002
  8.0000000e-002
  6.5000000e-002
  4.7500000e-002
  3.0000000e-002
  2.5000000e-002
  1.7500000e-002
  1.5000000e-002
  1.2500000e-002
  1.5000000e-002
  1.7500000e-002
  1.0000000e-002
  5.0000000e-003
