 -4.8313232e+000 -4.6725874e+000 -4.7725775e+000 -4.5465257e+000 -4.4806972e+000 -5.0088897e+000 -5.0526781e+000 -4.6247257e+000 -4.8837368e+000 -4.1768071e+000 -4.6280592e+000 -4.6239234e+000 -4.8845743e+000 -4.2348701e+000 -4.2678745e+000 -4.9855988e+000 -4.8048726e+000 -4.4683808e+000 -4.9503996e+000 -4.7928756e+000 -4.7990063e+000 -4.7850292e+000 -4.2336276e+000 -4.9267488e+000 -4.8951229e+000 -4.2346153e+000 -4.7126347e+000 -4.4895443e+000 -5.0728190e+000 -4.9804971e+000 -4.6374219e+000 -4.8013140e+000 -4.2076269e+000 -4.5027579e+000 -4.9376669e+000 -4.8201124e+000 -4.9614249e+000 -4.4920267e+000 -4.4946680e+000 -4.4578945e+000 -5.0528746e+000 -4.8367907e+000 -4.3943965e+000 -4.8717304e+000 -4.4078215e+000 -4.6444645e+000 -4.2299743e+000 -4.5576011e+000 -3.9520371e+000 -4.6088124e+000 -4.2299766e+000 -4.7563151e+000 -4.4815793e+000 -4.3124840e+000 -4.8523662e+000 -4.4681595e+000 -4.6229367e+000 -4.4276643e+000 -4.1879703e+000 -3.8113452e+000 -4.6257641e+000 -4.3977994e+000 -4.4116727e+000 -4.5331629e+000 -4.1834087e+000 -4.1564431e+000 -4.3418791e+000 -4.7800423e+000 -4.6858081e+000 -4.1851754e+000 -4.5467935e+000 -4.1010921e+000 -4.0290500e+000 -4.3225497e+000 -5.0446883e+000 -4.4461982e+000 -4.8478546e+000 -4.4881287e+000 -5.0708152e+000 -4.6480087e+000 -5.0804281e+000 -4.4829272e+000 -5.0837595e+000 -5.0712716e+000 -5.1195664e+000 -4.8649150e+000 -4.4757568e+000 -4.8298714e+000 -4.7799095e+000 -5.2006365e+000 -4.8798794e+000 -4.6686896e+000 -4.4074964e+000 -4.8987304e+000 -5.0705124e+000 -4.9168224e+000 -4.3019116e+000 -4.3855031e+000 -4.3824155e+000 -4.2175114e+000 -3.7704653e+000 -3.4795454e+000 -3.2072899e+000 -2.2690490e+000 -1.5825009e+000 -8.3213494e-001  3.8703716e-001  8.5476092e-001  2.0326604e+000  2.9918073e+000  3.3805764e+000  3.4194584e+000  3.6743894e+000  2.2973011e+000  1.2943566e+000 -7.8052353e-001 -1.6747071e+000 -3.6695174e+000 -5.4032596e+000 -6.0787273e+000 -5.5753040e+000 -4.5085718e+000 -3.8533596e+000 -4.1254614e+000 -3.8010320e+000 -4.2021818e+000 -4.3266072e+000 -4.2718700e+000 -4.5238314e+000 -5.1051154e+000 -4.3743414e+000 -4.5254667e+000 -4.7636517e+000 -5.0425472e+000 -4.8349998e+000 -5.2320663e+000 -4.7641874e+000 -4.7598844e+000 -5.1741498e+000 -4.8496391e+000 -4.7081486e+000 -4.3575370e+000 -4.4188622e+000 -4.4330632e+000 -4.3293799e+000 -4.9258629e+000 -4.8354759e+000 -4.2832170e+000 -5.0334549e+000 -5.0694363e+000 -4.3214712e+000 -4.9771738e+000 -4.3524974e+000 -4.3351848e+000 -4.8540202e+000 -4.0776035e+000 -4.7650066e+000 -4.7158850e+000 -4.5030386e+000 -4.6655024e+000 -4.3074877e+000 -4.4121992e+000 -4.2306380e+000 -4.7214190e+000 -4.4712501e+000 -3.8949153e+000 -3.8916900e+000 -4.1448099e+000 -4.2717098e+000 -3.9405131e+000 -3.9728065e+000 -4.5682446e+000 -4.1277650e+000 -3.9254017e+000 -3.8697309e+000 -4.4528421e+000 -4.2408918e+000 -4.0102284e+000 -3.8915671e+000 -3.4366533e+000 -3.3557335e+000 -3.6391802e+000 -3.4200901e+000 -3.2128286e+000 -3.6921017e+000 -3.7760256e+000 -3.3886348e+000 -2.9846760e+000 -3.5834760e+000 -2.8185199e+000 -3.2691977e+000 -3.3670814e+000 -2.9278487e+000 -3.0814505e+000 -3.1778184e+000 -3.1595730e+000 -3.2966126e+000 -2.7197413e+000 -3.4041261e+000 -3.1424241e+000 -3.4051102e+000 -2.6464691e+000 -3.4439162e+000 -3.3219663e+000 -3.2927646e+000 -2.9354988e+000 -3.4186395e+000 -3.7591914e+000 -3.7781481e+000 -3.3602689e+000 -4.2100668e+000 -4.0832222e+000 -3.6071659e+000 -4.2102106e+000 -4.0050764e+000 -4.2790359e+000 -3.8626728e+000 -4.0009203e+000 -3.9248919e+000 -4.5918832e+000 -4.5651447e+000 -4.4188748e+000 -4.7910112e+000 -4.3124452e+000 -4.7543352e+000 -5.1246196e+000 -5.0208193e+000 -4.8724470e+000 -5.1446950e+000 -4.4736860e+000 -4.4667716e+000 -5.2381167e+000 -5.1439250e+000 -5.2124888e+000 -4.7753559e+000 -4.8861481e+000 -5.2228725e+000 -4.5579238e+000 -4.6773159e+000 -5.1954637e+000 -4.7836048e+000 -4.6545112e+000 -4.5996426e+000 -5.0411345e+000 -4.6205895e+000 -5.2598740e+000 -5.1860813e+000 -4.4960009e+000 -4.7521097e+000 -4.4387807e+000 -5.0294906e+000 -4.5419070e+000 -5.2113812e+000 -4.6926837e+000 -5.1786454e+000 -5.0458951e+000 -5.0583390e+000 -5.0344317e+000 -4.7400827e+000 -4.6423331e+000 -4.4378418e+000 -4.6660568e+000 -4.6390667e+000 -4.8594097e+000 -4.9456992e+000 -4.8474859e+000 -4.5360813e+000 -4.9284272e+000 -4.5020953e+000 -4.5608180e+000 -4.5627772e+000 -4.4893513e+000 -4.9745691e+000 -5.1874550e+000 -4.9925340e+000 -5.1844440e+000 -4.6752603e+000 -4.4523798e+000 -4.7354904e+000 -4.9748086e+000 -5.1320870e+000 -5.0570050e+000 -4.8132243e+000 -4.9330520e+000 -4.6228798e+000 -5.0292013e+000 -5.2415076e+000 -4.5659004e+000 -4.9538407e+000 -5.1299603e+000 -4.8159116e+000 -4.9002135e+000 -4.6244175e+000 -5.4443612e+000 -4.8772755e+000 -4.6545468e+000 -5.2673249e+000 -4.6000427e+000 -4.5867231e+000 -4.7151352e+000 -4.7351599e+000 -4.8792274e+000 -5.2630262e+000 -4.8774731e+000 -5.1298319e+000 -5.0948598e+000 -4.9621533e+000 -4.6878652e+000 -5.3503509e+000 -4.5324607e+000 -4.6480973e+000 -5.0338630e+000 -4.6945329e+000 -5.2029749e+000 -4.9714662e+000 -4.7551951e+000 -5.0890145e+000 -5.2033505e+000 -5.1949650e+000 -4.8718998e+000 -4.9624065e+000 -4.8892907e+000 -4.3635643e+000 -4.5321676e+000 -5.0190205e+000 -4.3906788e+000 -5.1916965e+000 -5.2695683e+000 -5.0801210e+000 -5.0496292e+000 -4.9383315e+000 -4.4793347e+000 -4.3267157e+000 -5.0818330e+000 -4.7589516e+000 -4.2047726e+000 -4.8218552e+000 -4.9913027e+000 -5.0509758e+000 -4.8828700e+000 -4.4864267e+000 -4.9972185e+000 -4.5053398e+000 -4.7694911e+000 -4.8133053e+000 -4.2729134e+000 -5.0721228e+000 -4.9208400e+000 -4.7678965e+000 -4.5641281e+000 -4.5712119e+000 -5.3041574e+000 -4.6696878e+000 -5.1694019e+000 -5.1634692e+000 -5.4923826e+000 -5.2570573e+000 -5.4433318e+000 -5.2976010e+000 -4.7082174e+000 -4.8550155e+000 -4.7972721e+000 -5.4214619e+000 -5.3417866e+000 -4.9914278e+000 -5.5034622e+000 -5.2801343e+000 -4.8832260e+000 -5.2973623e+000 -4.8842516e+000 -5.3464334e+000 -5.0757417e+000 -5.3169725e+000 -4.9284646e+000 -5.0132958e+000 -4.8784921e+000 -4.2223255e+000 -3.4915697e+000 -2.9294059e+000 -1.5683528e+000 -9.1954371e-001 -1.2239382e-001  1.2327873e+000  2.0665987e+000  2.8234173e+000  3.0053396e+000  3.7703859e+000  3.0283058e+000  2.6357187e+000  1.6024818e+000  3.6204653e-001 -1.5568992e+000 -2.5393269e+000 -4.0690245e+000 -5.9423880e+000 -6.3215103e+000 -5.3307881e+000 -5.0304595e+000 -4.1368966e+000 -4.2588774e+000 -4.8008616e+000 -4.4482166e+000 -4.7334933e+000 -5.4044002e+000 -5.3624228e+000 -4.7080007e+000 -5.3171663e+000 -5.4532451e+000 -4.9781958e+000 -5.4857754e+000 -4.9947773e+000 -5.0881943e+000 -4.7629056e+000 -4.9906912e+000 -5.4768020e+000 -4.8825690e+000 -5.3856264e+000 -4.5839422e+000 -5.3962259e+000 -4.7496715e+000 -4.7070121e+000 -4.7769100e+000 -5.0993841e+000 -4.6271350e+000 -5.0085349e+000 -4.8655953e+000 -5.3253265e+000 -4.5861254e+000 -4.9007086e+000 -4.4382776e+000 -4.5276663e+000 -4.9923965e+000 -5.0588159e+000 -5.0726172e+000 -4.9837395e+000 -4.9512205e+000 -4.9979071e+000 -4.7485877e+000 -4.8137871e+000 -4.3094074e+000 -4.4471487e+000 -4.1448933e+000 -4.2086342e+000 -4.2036250e+000 -4.0432510e+000 -4.7033015e+000 -4.6848156e+000 -4.3420512e+000 -4.4464569e+000 -4.0331313e+000 -4.3466435e+000 -4.2969257e+000 -3.8660698e+000 -3.8054560e+000 -3.4259769e+000 -3.3839691e+000 -3.5774796e+000 -3.4591187e+000 -3.8523102e+000 -4.0264867e+000 -3.3836101e+000 -3.4242733e+000 -3.0786910e+000 -3.1800386e+000 -2.9691246e+000 -3.6645213e+000 -3.1261775e+000 -3.4903373e+000 -3.2296696e+000 -3.3861561e+000 -3.3073873e+000 -3.0420750e+000 -3.5727020e+000 -3.8560771e+000 -3.3036736e+000 -3.6711763e+000 -3.6131510e+000 -3.8359548e+000 -3.6303474e+000 -3.5222067e+000 -3.8285348e+000 -4.0603238e+000 -3.8424864e+000 -4.4179097e+000 -4.8273252e+000 -4.8971706e+000 -4.3058929e+000 -4.1953562e+000 -4.4250338e+000 -4.8766633e+000 -4.4965818e+000 -5.0976805e+000 -4.3633977e+000 -4.5148256e+000 -5.1544887e+000 -4.9588718e+000 -4.5018560e+000 -5.2023587e+000 -5.1618682e+000 -5.4179606e+000 -5.2977222e+000 -5.3588329e+000 -4.7442180e+000 -5.3098795e+000 -4.9128474e+000 -4.6842290e+000 -5.3319173e+000 -4.8127333e+000 -5.0165632e+000 -5.0648612e+000 -4.8523120e+000 -4.4878939e+000 -5.1994664e+000 -5.1362906e+000 -4.4921327e+000 -5.2136056e+000 -5.2278611e+000 -4.8222829e+000 -5.3270864e+000 -5.3030820e+000 -5.0370186e+000 -4.9006394e+000 -5.1318738e+000 -4.9790673e+000 -4.4804011e+000 -4.9768839e+000 -4.7568577e+000 -5.1032121e+000 -4.9370399e+000 -4.4899265e+000 -4.4349057e+000 -4.8314768e+000 -4.5039483e+000 -4.6280637e+000 -5.1536724e+000 -5.2753019e+000 -4.5322634e+000 -4.7467516e+000 -4.9897318e+000 -4.5643993e+000 -4.6236731e+000 -4.4396850e+000 -4.9313916e+000 -4.9468108e+000 -5.0500937e+000 -5.2791191e+000 -5.0861363e+000 -4.5307622e+000 -5.1434473e+000 -4.7938750e+000 -5.2011792e+000 -4.4944787e+000 -4.4246090e+000 -5.0551792e+000 -5.1396413e+000 -4.5429915e+000 -4.6149649e+000 -4.6477213e+000 -4.8693287e+000 -4.7786063e+000 -4.7516230e+000 -4.9243285e+000 -4.5413425e+000 -5.1163572e+000 -5.1927067e+000 -4.8552599e+000 -4.8636776e+000 -5.2255517e+000 -5.2150959e+000 -5.3186679e+000 -4.9719487e+000 -4.9086629e+000 -5.2863902e+000 -5.0324641e+000 -4.9477526e+000 -5.2790118e+000 -4.6720603e+000 -4.5268087e+000 -4.9359689e+000 -4.5962781e+000 -4.4936551e+000 -4.9830272e+000 -4.4485300e+000 -4.8994026e+000 -5.0693770e+000 -5.0622078e+000 -4.5990677e+000 -4.4295578e+000 -4.4816432e+000 -4.8783570e+000 -4.3764617e+000 -4.7870257e+000 -4.5494310e+000 -4.6976602e+000 -4.7751152e+000 -4.4933876e+000 -4.4693730e+000 -4.8064820e+000 -4.4728624e+000 -4.1150259e+000 -4.1803237e+000 -4.1365502e+000 -4.4187574e+000 -4.5986942e+000 -4.5412353e+000 -4.8878019e+000 -4.5575295e+000 -4.1312401e+000 -4.2072889e+000 -4.3738826e+000 -3.9308572e+000 -3.9430993e+000 -4.4042335e+000 -4.5197697e+000 -4.2344458e+000 -4.8789386e+000 -4.2427580e+000 -4.3040423e+000 -4.4592430e+000 -4.7263770e+000 -4.5192157e+000 -4.5284064e+000 -4.9183817e+000 -5.0761765e+000 -5.0144477e+000 -4.3893239e+000 -4.6004184e+000 -5.3809365e+000 -4.9431502e+000 -5.1580361e+000 -4.9497393e+000 -4.8606794e+000 -5.2851428e+000 -4.5379358e+000 -4.8672483e+000 -5.1280141e+000 -4.4196024e+000 -4.5254812e+000 -4.7728204e+000 -5.0057868e+000 -4.5256930e+000 -4.5642383e+000 -5.3143654e+000 -5.2351877e+000 -4.9829057e+000 -4.7448474e+000 -4.0082429e+000 -4.4831609e+000 -3.8085042e+000 -2.8662898e+000 -2.6530571e+000 -1.1041019e+000 -7.0187645e-001  7.1108426e-001  1.6465202e+000  2.7836163e+000  3.7841085e+000  3.3124180e+000  3.7380283e+000  2.5082700e+000  1.1051801e+000 -9.1891277e-001 -1.9802891e+000 -3.2543142e+000 -4.9246695e+000 -5.7233535e+000 -5.6457997e+000 -5.2930988e+000 -4.5959109e+000 -3.9672683e+000 -4.1962502e+000 -4.0750787e+000 -4.1868722e+000 -4.8838981e+000 -5.0883033e+000 -5.2389658e+000 -5.2359828e+000 -4.8950441e+000 -4.8348878e+000 -4.4387519e+000 -4.9461372e+000 -4.3919189e+000 -4.7902137e+000 -5.1221398e+000 -4.4560661e+000 -5.0029400e+000 -5.1096140e+000 -4.6124446e+000 -4.3733360e+000 -4.5024444e+000 -4.8125373e+000 -4.6226297e+000 -4.9352875e+000 -4.5550796e+000 -4.8314937e+000 -4.4064780e+000 -4.6380383e+000 -4.7690653e+000 -4.4697631e+000 -4.8580067e+000 -4.7076472e+000 -4.8251655e+000 -4.5785635e+000 -4.1572238e+000 -4.2966384e+000 -4.4937533e+000 -4.1847857e+000 -4.1983781e+000 -4.4264560e+000 -4.5813812e+000 -3.9032598e+000 -4.2597271e+000 -3.8369851e+000 -4.2140021e+000 -3.7622580e+000 -3.8659591e+000 -4.0635628e+000 -4.4260130e+000 -4.1286663e+000 -3.9157202e+000 -3.4405392e+000 -3.3944577e+000 -3.6083355e+000 -3.6889236e+000 -3.2760215e+000 -3.6212830e+000 -3.2774899e+000 -3.4823316e+000 -3.5675799e+000 -3.2241398e+000 -3.5377701e+000 -3.0584177e+000 -2.6138457e+000 -3.3025581e+000 -3.4075065e+000 -3.0559316e+000 -3.0774776e+000 -2.5604863e+000 -2.8195467e+000 -2.7414422e+000 -3.2882270e+000 -2.9648105e+000 -2.5657130e+000 -2.8520859e+000 -3.1343943e+000 -3.2868857e+000 -2.7863678e+000 -3.0700993e+000 -3.5612033e+000 -3.5488798e+000 -3.5061801e+000 -3.4287301e+000 -3.8240348e+000 -3.7107970e+000 -3.4466873e+000 -3.6210458e+000 -4.0919152e+000 -4.3326917e+000 -3.8859000e+000 -4.2873532e+000 -4.3534323e+000 -4.7164824e+000 -4.8036642e+000 -4.6329432e+000 -4.0321808e+000 -4.8473701e+000 -4.6459741e+000 -4.5673723e+000 -4.3265992e+000 -4.8656231e+000 -4.9418029e+000 -4.7185544e+000 -4.1753266e+000 -4.2193434e+000 -4.4019195e+000 -4.4439679e+000 -4.4912008e+000 -4.8184948e+000 -4.3504188e+000 -4.7952785e+000 -4.1479157e+000 -4.9000370e+000 -4.6499260e+000 -4.1958723e+000 -4.8546101e+000 -4.2889780e+000 -4.5152534e+000 -4.6566817e+000 -4.3751998e+000 -4.6794080e+000 -4.1976161e+000 -4.5807768e+000 -4.6161771e+000 -4.4745723e+000 -3.9604402e+000 -4.2112928e+000 -4.1709363e+000 -3.9833622e+000 -4.4503950e+000 -4.5514615e+000 -3.9962602e+000 -4.3496513e+000 -3.9643010e+000 -3.9664756e+000 -3.6362405e+000 -3.9581810e+000 -3.3220550e+000 -3.8045231e+000 -3.8879705e+000 -3.4261382e+000 -2.8150280e+000 -2.6355122e+000 -2.8817015e+000 -2.2581793e+000 -2.4000322e+000 -2.7031143e+000 -1.9933689e+000 -2.0237463e+000 -1.9403558e+000 -1.7184214e+000 -7.5013826e-001 -3.2186954e-001 -6.8917550e-001 -1.9602672e-002  3.1771158e-001  1.1002650e+000  1.6924818e+000  2.5469700e+000  2.7814291e+000  3.6308787e+000  3.3849588e+000  3.5543263e+000  3.8458606e+000  4.3237372e+000  4.3572574e+000  4.3259116e+000  4.4545673e+000  4.5505676e+000  4.1547242e+000  4.0273876e+000  4.1591758e+000  4.1889069e+000  4.0454877e+000  2.8624550e+000  1.5352391e+000 -5.8107330e-002 -1.3661955e+000 -3.1166993e+000 -4.3518043e+000 -5.0180885e+000 -4.7412390e+000 -4.5053294e+000 -4.5408260e+000 -4.9844796e+000 -4.9853030e+000 -5.5352306e+000 -6.0637990e+000 -6.0689117e+000 -6.1502692e+000 -5.8869015e+000 -6.2847814e+000 -5.9296295e+000 -5.7175059e+000 -5.4454137e+000 -5.5603743e+000 -5.4489372e+000 -6.1340683e+000 -5.7935295e+000 -6.3173019e+000 -5.8270874e+000 -6.2669502e+000 -5.9564411e+000 -5.7989484e+000 -6.6083287e+000 -6.2364038e+000 -6.3879485e+000 -6.0092106e+000 -6.0924401e+000 -6.2756202e+000 -6.5633824e+000 -6.7241651e+000 -6.8513146e+000 -6.7731984e+000 -6.4016798e+000 -6.4402349e+000 -6.1034695e+000 -6.5684196e+000 -6.2081418e+000 -6.8589660e+000 -6.6570744e+000 -7.1197250e+000 -6.5584053e+000 -7.2126682e+000 -6.9334815e+000 -6.7201881e+000 -6.6449435e+000 -6.9144431e+000 -7.3670230e+000 -7.4832393e+000 -7.3092986e+000 -6.8467788e+000 -7.5272460e+000 -7.6447759e+000 -7.7973001e+000 -7.1314672e+000 -7.6136080e+000 -7.4613646e+000 -7.9300374e+000 -7.5249704e+000 -7.1806701e+000 -7.8792355e+000 -7.6779400e+000 -7.6424873e+000 -7.3472957e+000 -7.1191910e+000 -7.0931416e+000 -7.3791452e+000 -7.1181483e+000 -7.5779527e+000 -7.3813589e+000 -7.3969036e+000 -6.5785478e+000 -7.3055983e+000 -6.5712272e+000 -6.7371975e+000 -6.3308596e+000 -6.7416162e+000 -6.7283258e+000 -6.1348598e+000 -5.7120300e+000 -5.8277182e+000 -5.5352370e+000 -6.1249963e+000 -5.4704221e+000 -5.5967231e+000 -5.6904020e+000 -5.6078262e+000 -5.6442234e+000 -5.2799095e+000 -4.7189630e+000 -4.7937637e+000 -4.9847947e+000 -5.1906084e+000 -5.4845266e+000 -4.7363048e+000 -4.7593561e+000 -5.3250859e+000 -4.7355092e+000 -4.6310072e+000 -5.2912324e+000 -4.9349502e+000 -4.5137417e+000 -5.0455355e+000 -4.7763945e+000 -5.2029558e+000 -4.9467581e+000 -5.3111476e+000 -5.3409578e+000 -4.9208406e+000 -5.0958558e+000 -5.3028789e+000 -4.7661042e+000 -5.1355693e+000 -4.7383467e+000 -5.2920060e+000 -5.4677929e+000 -4.7558796e+000 -5.0479970e+000 -4.9403373e+000 -5.1624414e+000 -5.0256868e+000 -4.5813853e+000 -4.5805103e+000 -5.2017409e+000 -4.8158497e+000 -5.2130684e+000 -5.0462775e+000 -5.3446830e+000 -5.1854812e+000 -4.5753655e+000 -5.1030175e+000 -4.6363930e+000 -4.9492023e+000 -4.8225451e+000 -4.9555780e+000 -5.1111385e+000 -5.0579615e+000 -4.6731439e+000 -4.9137058e+000 -5.4191981e+000 -5.2151952e+000 -4.7501986e+000 -5.2774318e+000 -5.0956324e+000 -5.1801261e+000 -5.3416602e+000 -4.8903481e+000 -4.8870087e+000 -4.7110607e+000 -4.8699059e+000 -5.2951251e+000 -5.0604222e+000 -5.4678558e+000 -5.5663547e+000 -5.1461394e+000 -4.7081995e+000 -5.3610579e+000 -5.2452668e+000 -4.6833317e+000 -4.6887204e+000 -4.8021671e+000 -4.8273641e+000 -5.3015642e+000 -4.8191771e+000 -5.3875460e+000 -4.8956428e+000 -5.0916076e+000 -5.5038757e+000 -4.9534406e+000 -4.7833117e+000 -4.6164941e+000 -5.4390655e+000 -5.3408139e+000 -4.8753226e+000 -4.9675956e+000 -5.0846172e+000 -5.4731854e+000 -4.7456562e+000 -4.7018104e+000 -5.2750533e+000 -5.4880502e+000 -4.6595811e+000 -5.1273946e+000 -5.3423620e+000 -5.3025071e+000 -4.8122153e+000 -4.7893770e+000 -5.5493920e+000 -4.7374668e+000 -4.9968824e+000 -4.8036297e+000 -4.6565515e+000 -5.4077577e+000 -4.6344760e+000 -5.2601339e+000 -5.3409486e+000 -5.4495881e+000 -5.1330569e+000 -5.4251221e+000 -4.8663026e+000 -5.5062067e+000 -4.8575983e+000 -5.1130300e+000 -5.5592512e+000 -5.0916542e+000 -5.3805172e+000 -5.0202085e+000 -5.1322532e+000 -4.9634308e+000 -5.3623640e+000 -4.7628487e+000 -4.9998279e+000 -4.7690655e+000 -5.2537682e+000 -4.8506401e+000 -5.1754501e+000 -4.8735853e+000 -5.5402426e+000 -4.6642878e+000 -5.5389896e+000 -5.4422146e+000 -5.1671295e+000 -4.9404328e+000 -5.3186835e+000 -5.3542037e+000 -5.4580038e+000 -4.7684313e+000 -5.3142885e+000 -5.2287512e+000 -5.5382675e+000 -5.4106975e+000 -5.0884962e+000 -5.3696160e+000 -5.0503531e+000 -4.8631490e+000 -5.2353914e+000 -4.8785879e+000 -4.9396728e+000 -4.6717265e+000 -5.5532266e+000 -4.9198365e+000 -5.0451440e+000 -4.6399025e+000 -4.8989597e+000 -5.1156875e+000 -5.2928751e+000 -5.2278614e+000 -5.2266082e+000 -5.4783867e+000 -5.1177448e+000 -4.8262551e+000 -5.0875373e+000 -5.1791943e+000 -5.1295497e+000 -4.8306613e+000 -4.6820390e+000 -4.8451721e+000 -5.3909873e+000 -5.4775237e+000 -5.5206904e+000 -5.3262631e+000 -5.5148661e+000 -5.3993667e+000 -4.6640830e+000 -5.3415329e+000 -5.0749991e+000 -4.8737388e+000 -5.0820799e+000 -5.0077223e+000 -4.8448640e+000 -4.6768507e+000 -5.1843932e+000 -4.9264675e+000 -5.4430235e+000 -4.6860120e+000 -4.6668730e+000 -4.5617679e+000 -5.1326010e+000 -5.1808006e+000 -4.8874148e+000 -4.9947582e+000 -4.8181500e+000 -4.7110417e+000 -4.6741004e+000 -4.7708285e+000 -5.4614483e+000 -5.3998931e+000 -5.1303684e+000 -5.3209657e+000 -5.0951874e+000 -4.7555469e+000 -4.6454128e+000 -5.1496241e+000 -4.5941836e+000 -4.8127812e+000 -4.9738386e+000 -4.5444655e+000 -4.3538563e+000 -4.8565647e+000 -4.7374432e+000 -4.6192150e+000 -4.8538864e+000 -4.6589879e+000 -4.6514332e+000 -4.5079616e+000 -4.6775827e+000 -4.9520972e+000 -4.7795622e+000 -4.7967884e+000 -4.8159423e+000 -4.2487743e+000 -4.7218579e+000 -4.5031482e+000 -4.7320844e+000 -4.5274712e+000 -4.8519791e+000 -4.5524098e+000 -4.4376898e+000 -4.8600209e+000 -4.6176577e+000 -4.4263318e+000 -4.3745612e+000 -4.4959429e+000 -4.9658232e+000 -4.5224336e+000 -4.4978514e+000 -5.1830405e+000 -4.7479014e+000 -4.5483129e+000 -5.3996445e+000 -5.2750349e+000 -4.7069920e+000 -5.3674234e+000 -5.2516459e+000 -4.8783570e+000 -5.2376773e+000 -4.9725553e+000 -4.9075781e+000 -4.9658872e+000 -4.9314179e+000 -5.2391469e+000 -5.3369691e+000 -4.6079470e+000 -5.3621037e+000 -5.1303901e+000 -4.6017806e+000 -5.1057196e+000 -4.5209357e+000 -3.8547597e+000 -3.2631593e+000 -3.0446017e+000 -2.3557780e+000 -1.4337563e+000  1.3826802e-001  7.4331413e-001  1.8544343e+000  3.2495578e+000  3.5862231e+000  3.7532611e+000  3.7471446e+000  3.5062523e+000  2.2509287e+000  6.4902217e-001 -8.6242390e-001 -1.9084055e+000 -3.0284385e+000 -4.4982474e+000 -6.2321093e+000 -5.7609649e+000 -5.3386732e+000 -4.6864347e+000 -4.7081531e+000 -4.4225244e+000 -4.4364745e+000 -4.2695736e+000 -5.0897012e+000 -4.9960441e+000 -4.6192646e+000 -5.2773906e+000 -4.8076398e+000 -5.1319001e+000 -4.9940463e+000 -4.7686012e+000 -4.7575696e+000 -4.9209192e+000 -5.3050305e+000 -4.9681705e+000 -4.5698547e+000 -4.5832497e+000 -4.8509321e+000 -4.6387770e+000 -5.0635715e+000 -4.5832269e+000 -4.5242085e+000 -4.7374290e+000 -4.9201806e+000 -5.0068271e+000 -4.3126853e+000 -4.6591649e+000 -4.5186841e+000 -4.3941640e+000 -4.7690982e+000 -4.9506048e+000 -4.7710312e+000 -5.1707296e+000 -4.8868337e+000 -4.6412455e+000 -4.7212376e+000 -4.3425148e+000 -4.2386221e+000 -4.4600328e+000 -4.4548896e+000 -4.3903526e+000 -4.4196121e+000 -4.4873155e+000 -4.5988734e+000 -4.1633862e+000 -4.1289270e+000 -4.5347651e+000 -4.5627560e+000 -4.4581949e+000 -4.3863934e+000 -4.0452303e+000 -4.0352564e+000 -4.2223702e+000 -3.7229061e+000 -4.3783791e+000 -4.0307743e+000 -3.5348566e+000 -3.4641960e+000 -3.9903000e+000 -3.8419505e+000 -3.1195963e+000 -3.3388712e+000 -3.6018519e+000 -3.7365434e+000 -3.1697913e+000 -3.1836043e+000 -3.5524028e+000 -3.4487918e+000 -2.9357687e+000 -3.4670326e+000 -3.1708169e+000 -2.4747762e+000 -3.2713440e+000 -2.5422365e+000 -2.5292532e+000 -3.1709414e+000 -2.6154767e+000 -3.1932097e+000 -3.1557069e+000 -2.5247580e+000 -2.5370633e+000 -2.3464012e+000 -2.3960954e+000 -2.5988145e+000 -2.4079797e+000 -3.1883338e+000 -2.7621012e+000 -3.1382914e+000 -3.1237470e+000 -2.9171801e+000 -3.0730156e+000 -3.7921341e+000 -4.0206625e+000 -4.0341324e+000 -3.7087509e+000 -4.0021409e+000 -4.0249289e+000 -3.8600828e+000 -4.3045854e+000 -3.8607417e+000 -3.9928175e+000 -4.4926166e+000 -4.1028728e+000 -4.8469982e+000 -4.1403070e+000 -4.4418944e+000 -4.7898341e+000 -4.3846093e+000 -4.7338869e+000 -4.1013731e+000 -4.2980649e+000 -4.8445091e+000 -4.8003938e+000 -4.5328408e+000 -4.7363067e+000 -4.4260808e+000 -4.8957831e+000 -4.2594373e+000 -4.6755232e+000 -4.7370773e+000 -4.6047305e+000 -3.9619646e+000 -4.6868653e+000 -4.0441232e+000 -4.7370474e+000 -4.4931194e+000 -4.0970584e+000 -4.8885734e+000 -4.3273958e+000 -4.3896212e+000 -4.2942845e+000 -4.7240465e+000 -4.5155599e+000 -4.2565283e+000 -4.5220430e+000 -4.6961972e+000 -4.1349661e+000 -4.3153642e+000 -4.3285875e+000 -4.8894101e+000 -4.3469372e+000 -4.8666491e+000 -4.2414904e+000 -4.0312294e+000 -4.2498765e+000 -4.2117978e+000 -4.3724416e+000 -4.0982974e+000 -4.9136537e+000 -4.2222265e+000 -4.6048515e+000 -4.7342766e+000 -4.2499242e+000 -4.9871043e+000 -4.7940816e+000 -4.5394589e+000 -4.1668150e+000 -4.3364216e+000 -4.2397719e+000 -4.6912006e+000 -4.9838123e+000 -5.0543479e+000 -4.6181781e+000 -4.6536025e+000 -4.4072298e+000 -4.3694550e+000 -4.4586475e+000 -4.3752474e+000 -4.7581456e+000 -4.5401964e+000 -4.3324676e+000 -4.9464327e+000 -4.5914015e+000 -4.2750854e+000 -4.7586604e+000 -4.9392117e+000 -4.3335948e+000 -4.9903936e+000 -4.2460401e+000 -4.4895282e+000 -4.6393542e+000 -4.8634609e+000 -4.9796087e+000 -5.0082373e+000 -4.4673608e+000 -4.8318571e+000 -4.8402640e+000 -4.8293567e+000 -4.4357108e+000 -4.6290852e+000 -4.9854673e+000 -5.0581758e+000 -4.9072675e+000 -5.0349663e+000 -4.9915685e+000 -4.9626470e+000 -4.8260223e+000 -4.5036643e+000 -4.3701254e+000 -4.5258968e+000 -4.3711285e+000 -4.6398504e+000 -4.5958838e+000 -4.5019378e+000 -4.5240943e+000 -4.4293070e+000 -4.3831555e+000 -4.6040190e+000 -3.9973797e+000 -4.1201059e+000 -4.0141052e+000 -4.1123557e+000 -4.6350319e+000 -4.2697052e+000 -4.2555266e+000 -4.0405828e+000 -3.9176702e+000 -4.3643032e+000 -4.0069607e+000 -4.1379170e+000 -4.1735343e+000 -4.6107643e+000 -4.7251396e+000 -4.5815389e+000 -4.7448302e+000 -4.5124099e+000 -3.9907404e+000 -4.7016654e+000 -4.6513854e+000 -4.3108769e+000 -4.8917475e+000 -4.4134246e+000 -4.5324346e+000 -4.5265056e+000 -4.4581252e+000 -4.4936433e+000 -5.2537013e+000 -4.7441463e+000 -4.5202789e+000 -5.1029495e+000 -4.9447044e+000 -4.7176878e+000 -4.7439423e+000 -4.3506950e+000 -4.9551752e+000 -5.1086581e+000 -5.0082669e+000 -5.0014305e+000 -5.1611261e+000 -4.5127909e+000 -4.4449269e+000 -3.9746844e+000 -3.5987920e+000 -2.9808611e+000 -1.7703472e+000 -2.5317779e-001  8.4215740e-001  1.8616516e+000  3.2690037e+000  4.0151636e+000  3.9735631e+000  3.6590985e+000  2.9091857e+000  1.3533436e+000 -1.6143168e-001 -1.5442572e+000 -3.1084873e+000 -3.9717872e+000 -5.9112964e+000 -5.9311037e+000 -5.6545022e+000 -4.6117781e+000 -4.3756042e+000 -3.9718957e+000 -3.8895887e+000 -3.8882988e+000 -4.0525051e+000 -4.9160551e+000 -4.6934002e+000 -4.8248530e+000 -4.9136622e+000 -4.4999424e+000 -4.2613832e+000 -4.8067194e+000 -4.6723194e+000 -4.3649264e+000 -4.4267006e+000 -4.8095925e+000 -4.4236345e+000 -4.7063936e+000 -4.8696480e+000 -4.3269026e+000 -4.4220188e+000 -4.5579388e+000 -4.3834747e+000 -4.6241322e+000 -4.8172755e+000 -4.1173191e+000 -4.8979742e+000 -4.3784079e+000 -3.9630521e+000 -4.7078809e+000 -4.4041386e+000 -4.4553978e+000 -3.9911398e+000 -4.3814160e+000 -4.1329929e+000 -4.3913782e+000 -4.3922505e+000 -3.8641906e+000 -4.0199251e+000 -3.9142329e+000 -4.1506282e+000 -4.0442423e+000 -3.8637954e+000 -3.9080422e+000 -4.2841374e+000 -4.2149512e+000 -4.0295086e+000 -3.5296926e+000 -3.7397227e+000 -3.6622321e+000 -3.3447964e+000 -3.1896479e+000 -3.6417416e+000 -3.2701612e+000 -3.5101722e+000 -3.2475645e+000 -3.7341011e+000 -3.1554813e+000 -3.4695786e+000 -3.4797010e+000 -3.4222888e+000 -2.7364102e+000 -2.8198993e+000 -2.8448917e+000 -2.5145069e+000 -2.7297948e+000 -3.1796017e+000 -2.8778146e+000 -2.9273133e+000 -2.9762427e+000 -2.5569187e+000 -2.9345390e+000 -3.3594026e+000 -2.6692443e+000 -2.9944764e+000 -2.8411679e+000 -3.0128334e+000 -2.9846598e+000 -2.9451878e+000 -3.5986546e+000 -3.6525283e+000 -3.4601410e+000 -3.9244419e+000 -3.5616565e+000 -3.5931250e+000 -4.2054241e+000 -3.9895199e+000 -4.2231071e+000 -4.2315439e+000 -3.9267273e+000 -3.9154089e+000 -4.3407966e+000 -4.1690764e+000 -4.5988980e+000 -4.6120511e+000 -4.8232111e+000 -4.7674388e+000 -4.1791371e+000 -4.8026846e+000 -4.8089977e+000 -4.5033208e+000 -4.8833255e+000 -4.7859293e+000 -4.0340537e+000 -4.4982282e+000 -4.1868490e+000 -4.1346823e+000 -4.8888495e+000 -5.0057827e+000 -4.9862728e+000 -4.0998708e+000 -4.6281325e+000 -4.5407283e+000 -4.5289757e+000 -4.7092261e+000 -4.4587263e+000 -4.3068883e+000 -4.5389742e+000 -4.6233451e+000 -4.7801268e+000 -4.2247104e+000 -4.1063161e+000 -4.6442502e+000 -4.0087122e+000 -4.0594869e+000 -4.0839786e+000 -4.2787193e+000 -4.0723361e+000 -4.8162317e+000 -4.3850622e+000 -3.9657088e+000 -4.6514498e+000 -4.8100435e+000 -4.6637058e+000 -4.5683181e+000 -4.3682643e+000 -4.5805029e+000 -4.2093852e+000 -4.4432743e+000 -4.0973165e+000 -4.6347059e+000 -4.1549819e+000 -4.2092326e+000 -4.7578000e+000 -4.2920591e+000 -4.3315175e+000 -4.1982639e+000 -4.2038186e+000 -3.9495990e+000 -4.1772008e+000 -4.0891376e+000 -4.5901091e+000 -4.2117993e+000 -4.1024103e+000 -4.7389719e+000 -4.5953014e+000 -4.1489750e+000 -4.4367870e+000 -4.9473735e+000 -4.0782691e+000 -4.8445769e+000 -4.0339122e+000 -4.5778964e+000 -4.1630523e+000 -4.1886466e+000 -4.5537978e+000 -4.9178454e+000 -4.5918833e+000 -4.4579183e+000 -4.4427095e+000 -4.4775697e+000 -4.3936971e+000 -4.6356783e+000 -4.9397425e+000 -4.9077545e+000 -4.0951195e+000 -4.7507795e+000 -4.9597792e+000 -4.3463187e+000 -4.7274751e+000 -4.3241370e+000 -4.3167309e+000 -4.9852874e+000 -4.2643389e+000 -4.1301484e+000 -4.1042350e+000 -4.1092220e+000 -4.1783831e+000 -4.2232150e+000 -4.1676913e+000 -4.4995083e+000 -4.2528574e+000 -4.8445559e+000 -4.3152261e+000 -4.6448694e+000 -4.3727682e+000 -4.0450454e+000 -4.7653968e+000 -4.5385766e+000 -4.8086778e+000 -4.3246642e+000 -4.1861058e+000 -4.6330998e+000 -4.6687369e+000 -3.8685853e+000 -3.9311898e+000 -3.9738909e+000 -4.6507703e+000 -4.6493013e+000 -3.8856247e+000 -4.5393472e+000 -3.8039801e+000 -3.8084779e+000 -4.5522000e+000 -3.8120180e+000 -4.2244904e+000 -4.5233639e+000 -3.8380842e+000 -4.4004757e+000 -4.0690294e+000 -3.8489241e+000 -3.6824446e+000 -3.7070418e+000 -4.2769819e+000 -3.7936216e+000 -4.1429177e+000 -4.1384863e+000 -4.1568731e+000 -4.6989548e+000 -4.1563075e+000 -3.9544763e+000 -4.0388629e+000 -4.5192978e+000 -4.6508825e+000 -4.8873544e+000 -4.3722713e+000 -4.8299937e+000 -5.0893110e+000 -4.4941967e+000 -4.5130867e+000 -4.6645422e+000 -4.3419817e+000 -4.2516582e+000 -4.1292395e+000 -4.6466745e+000 -4.8081209e+000 -4.8991430e+000 -4.6560976e+000 -4.3012737e+000 -4.4656006e+000 -4.8191653e+000 -4.7926285e+000 -4.9439548e+000 -4.6878654e+000 -4.7104722e+000 -4.4197090e+000 -4.2967735e+000 -3.5564881e+000 -3.1256651e+000 -2.0302305e+000 -6.7185969e-001  5.8901802e-001  1.5146647e+000  2.7603882e+000  3.9842411e+000  4.2540507e+000  3.7037311e+000  2.9788347e+000  1.7336072e+000  1.3457828e-001 -1.0639796e+000 -3.2247733e+000 -3.9469084e+000 -6.1688731e+000 -5.2020918e+000 -4.1759791e+000 -3.9804872e+000 -3.6701273e+000 -3.5735372e+000 -3.4577836e+000 -4.3481076e+000 -3.9839726e+000 -4.7694341e+000 -4.3418291e+000 -4.7451756e+000 -4.7549877e+000 -4.8554207e+000 -4.0907211e+000 -4.9075355e+000 -4.2800886e+000 -4.6795602e+000 -4.3345518e+000 -4.3371483e+000 -4.7521903e+000 -4.4784957e+000 -4.6300345e+000 -4.7302810e+000 -4.3691877e+000 -4.5609131e+000 -4.8126927e+000 -4.8151258e+000 -4.5020309e+000 -4.1770384e+000 -4.0753605e+000 -4.3863205e+000 -4.1602036e+000 -4.3761733e+000 -4.5465139e+000 -4.0601307e+000 -4.3842488e+000 -3.8807998e+000 -4.1266396e+000 -4.3387224e+000 -4.3520079e+000 -4.4745502e+000 -4.1180691e+000 -3.9796891e+000 -4.0083105e+000 -3.7033483e+000 -3.8384364e+000 -4.2975979e+000 -3.8983009e+000 -3.7689157e+000 -3.6582013e+000 -3.9375801e+000 -3.5219908e+000 -3.6365406e+000 -4.0598505e+000 -3.1965706e+000 -3.9531273e+000 -3.7663490e+000 -3.2976076e+000 -3.6805180e+000 -3.2407307e+000 -3.3121585e+000 -3.0327385e+000 -3.4235064e+000 -3.3726749e+000 -2.7085426e+000 -3.3570947e+000 -3.2210822e+000 -2.8159513e+000 -2.7032214e+000 -3.0128872e+000 -2.7982387e+000 -3.0601130e+000 -2.7493608e+000 -2.9534643e+000 -2.8173069e+000 -2.8629911e+000 -2.4174970e+000 -2.4196207e+000 -2.5294337e+000 -3.2371509e+000 -2.6677519e+000 -3.2098748e+000 -3.0992552e+000 -3.5629288e+000 -3.3544337e+000 -3.6175307e+000 -3.4399449e+000 -3.7417346e+000 -3.5727618e+000 -3.4601919e+000 -3.5179597e+000 -3.8296238e+000 -3.8750269e+000 -4.2941509e+000 -4.6018652e+000 -4.7548861e+000 -4.2502925e+000 -4.4141753e+000 -4.8638551e+000 -4.4218419e+000 -4.6204418e+000 -4.9107832e+000 -4.3488444e+000 -4.4576949e+000 -4.6022913e+000 -4.2397987e+000 -4.8563470e+000 -4.3571511e+000 -4.5837891e+000 -4.6674999e+000 -4.4794096e+000 -4.2209869e+000 -4.2311203e+000 -4.1708347e+000 -4.5661975e+000 -4.3891901e+000 -4.2813142e+000 -4.8062122e+000 -4.4300623e+000 -4.6024504e+000 -4.8402705e+000 -4.6629527e+000 -4.5087863e+000 -4.4488394e+000 -4.4229148e+000 -4.1713504e+000 -4.4175789e+000 -4.8660123e+000 -4.5552195e+000 -4.4915769e+000 -4.6743393e+000 -4.7082669e+000 -4.4391468e+000 -4.5055459e+000 -4.6758444e+000 -4.5524149e+000 -4.9055524e+000 -4.7059229e+000 -4.4863452e+000 -4.4367350e+000 -4.6082266e+000 -4.5506889e+000 -4.6777816e+000 -4.9002695e+000 -4.2613402e+000 -4.7382849e+000 -4.5567478e+000 -4.5513084e+000 -4.4907439e+000 -4.4665084e+000 -4.3730312e+000 -4.3380920e+000 -4.6278215e+000 -4.8787640e+000 -5.0242832e+000 -4.7389464e+000 -4.3716009e+000 -4.3752406e+000 -4.4604136e+000 -4.6825485e+000 -4.5418765e+000 -4.5632316e+000 -4.4080795e+000 -5.0100317e+000 -4.9981904e+000 -4.5427674e+000 -4.8579341e+000 -4.6308678e+000 -4.4742208e+000 -5.0007878e+000 -4.4876168e+000 -4.3884162e+000 -4.7993812e+000 -4.9040879e+000 -5.0206216e+000 -4.4452119e+000 -4.5070514e+000 -4.6019117e+000 -5.0546615e+000 -4.9909525e+000 -5.2809707e+000 -5.2000054e+000 -5.0198870e+000 -4.5106391e+000 -4.6706597e+000 -4.9481254e+000 -4.4555051e+000 -4.9913848e+000 -4.3927128e+000 -4.9703789e+000 -4.6835145e+000 -4.5533574e+000 -5.3207449e+000 -4.4763716e+000 -4.4247968e+000 -4.6600231e+000 -4.8802258e+000 -4.5044806e+000 -4.2645470e+000 -4.5765956e+000 -4.8947632e+000 -4.6314044e+000 -4.9932029e+000 -4.2211222e+000 -4.6319041e+000 -4.8517297e+000 -4.7400953e+000 -4.2409579e+000 -4.4777690e+000 -4.3183672e+000 -4.8141986e+000 -4.6446497e+000 -4.1287523e+000 -4.1643807e+000 -4.4780104e+000 -4.2381992e+000 -4.2750670e+000 -4.7644833e+000 -4.9646923e+000 -4.9852410e+000 -4.8960488e+000 -4.2169483e+000 -4.8942064e+000 -4.6870810e+000 -4.3187804e+000 -4.6697658e+000 -4.5866259e+000 -4.8829334e+000 -4.7133377e+000 -4.9053694e+000 -4.7032453e+000 -5.2901452e+000 -4.5846088e+000
